"Image Name", "Elapsed Time", "Object #", "Frame #", "X", "Y", "Distance", "Time Interval", "Velocity", "Absolute Angle", "Distance To Origin", "Delta X", "Delta Y"
"Med_NSS_2(1)", "00:00:00.000", 1, 1, 98.3264, 167.06, 0, 0, 0, 0, 193.848, 0, 0
"Med_NSS_2(1)", "00:00:00.146", 1, 2, 98.321, 167.061, 0.00550555, 50, 0.000110111, -77.6779, 193.847, -0.00537872, 0.00117493
"Med_NSS_2(1)", "00:00:00.146", 1, 3, 94.7693, 169.176, 4.13359, 50, 0.0826717, -59.232, 193.912, -3.55177, 2.11459
"Med_NSS_2(1)", "00:00:00.146", 1, 4, 94.686, 169.221, 0.0945808, 50, 0.00189162, -61.7275, 193.91, -0.0832977, 0.0447998
"Med_NSS_2(1)", "00:00:00.146", 1, 5, 92.126, 171.391, 3.35597, 50, 0.0671195, -49.7117, 194.582, -2.55994, 2.17009
"Med_NSS_2(1)", "00:00:00.147", 1, 6, 91.5761, 171.254, 0.566638, 50, 0.0113328, -103.924, 194.202, -0.549988, -0.136353
"Med_NSS_2(1)", "00:00:00.147", 1, 7, 91.5761, 171.254, 0, 50, 0, 0, 194.202, 0, 0
"Med_NSS_2(1)", "00:00:00.147", 1, 8, 92.1649, 171.509, 0.641603, 50, 0.0128321, 66.599, 194.704, 0.588829, 0.254822
"Med_NSS_2(1)", "00:00:00.147", 1, 9, 91.8337, 172.108, 0.68392, 50, 0.0136784, -28.9674, 195.076, -0.33123, 0.598358
"Med_NSS_2(1)", "00:00:00.147", 1, 10, 91.8337, 172.108, 0, 50, 0, 0, 195.076, 0, 0
"Med_NSS_2(1)", "00:00:00.148", 1, 11, 90.1301, 174.625, 3.0392, 50, 0.0607841, -34.0917, 196.513, -1.70353, 2.51689
"Med_NSS_2(1)", "00:00:00.148", 1, 12, 90.4171, 175.42, 0.845769, 50, 0.0169154, 19.835, 197.351, 0.28698, 0.795593
"Med_NSS_2(1)", "00:00:00.148", 1, 13, 94.8913, 175.226, 4.4784, 50, 0.0895679, 92.4833, 199.27, 4.47419, -0.194031
"Med_NSS_2(1)", "00:00:00.148", 1, 14, 97.384, 175.652, 2.52888, 50, 0.0505775, 80.2949, 200.842, 2.49268, 0.426315
"Med_NSS_2(1)", "00:00:00.148", 1, 15, 98.704, 176.616, 1.63427, 50, 0.0326855, 53.8743, 202.326, 1.32005, 0.963501
"Med_NSS_2(1)", "00:00:00.148", 1, 16, 105.08, 177.511, 6.43828, 50, 0.128766, 82.0054, 206.281, 6.3757, 0.895447
"Med_NSS_2(1)", "00:00:00.148", 1, 17, 107.22, 178.562, 2.3844, 50, 0.047688, 63.8538, 208.28, 2.14041, 1.05072
"Med_NSS_2(1)", "00:00:00.149", 1, 18, 113.066, 177.539, 5.9346, 50, 0.118692, 99.929, 210.485, 5.84571, -1.02328
"Med_NSS_2(1)", "00:00:00.149", 1, 19, 113.199, 178.205, 0.679605, 50, 0.0135921, 11.2946, 211.119, 0.133102, 0.666443
"Med_NSS_2(1)", "00:00:00.149", 1, 20, 112.74, 178.155, 0.461972, 50, 0.00923944, -96.2386, 210.83, -0.459236, -0.0502014
"Med_NSS_2(1)", "00:00:00.149", 1, 21, 112.735, 174.099, 4.056, 50, 0.08112, -179.94, 207.412, -0.0042572, -4.056
"Med_NSS_2(1)", "00:00:00.149", 1, 22, 112.654, 174.393, 0.305031, 50, 0.00610062, -15.419, 207.615, -0.0811005, 0.294052
"Med_NSS_2(1)", "00:00:00.150", 1, 23, 106.961, 170.683, 6.79597, 50, 0.135919, -123.09, 201.428, -5.69379, -3.71025
"Med_NSS_2(1)", "00:00:00.150", 1, 24, 104.823, 170.142, 2.20517, 50, 0.0441035, -104.196, 199.84, -2.13783, -0.540802
"Med_NSS_2(1)", "00:00:00.150", 1, 25, 104.919, 169.938, 0.225929, 50, 0.00451858, 154.679, 199.717, 0.0966263, -0.204224
"Med_NSS_2(1)", "00:00:00.150", 1, 26, 100.605, 166.189, 5.71573, 50, 0.114315, -130.99, 194.268, -4.31435, -3.74911
"Med_NSS_2(1)", "00:00:00.150", 1, 27, 99.6937, 165.244, 1.31291, 50, 0.0262581, -136.043, 192.988, -0.911308, -0.945114
"Med_NSS_2(1)", "00:00:00.150", 1, 28, 100.22, 165.017, 0.572898, 50, 0.011458, 113.35, 193.066, 0.525978, -0.227066
"Med_NSS_2(1)", "00:00:00.150", 1, 29, 95.1872, 159.864, 7.20216, 50, 0.144043, -135.674, 186.057, -5.03246, -5.15222
"Med_NSS_2(1)", "00:00:00.151", 1, 30, 93.6198, 159.165, 1.71655, 50, 0.0343309, -114.057, 184.656, -1.56744, -0.699753
"Med_NSS_2(1)", "00:00:00.151", 1, 31, 87.8797, 153.49, 8.07115, 50, 0.161423, -134.669, 176.868, -5.74008, -5.67406
"Med_NSS_2(1)", "00:00:00.151", 1, 32, 88.0365, 152.44, 1.06191, 50, 0.0212382, 171.511, 176.035, 0.156761, -1.05028
"Med_NSS_2(1)", "00:00:00.151", 1, 33, 88.1348, 151.61, 0.835563, 50, 0.0167113, 173.242, 175.367, 0.0983276, -0.829758
"Med_NSS_2(1)", "00:00:00.151", 1, 34, 88.4555, 141.352, 10.2638, 50, 0.205277, 178.209, 166.747, 0.320747, -10.2588
"Med_NSS_2(1)", "00:00:00.152", 1, 35, 90.5788, 138.68, 3.41281, 50, 0.0682561, 141.526, 165.64, 2.12332, -2.67184
"Med_NSS_2(1)", "00:00:00.152", 1, 36, 100.05, 125.939, 15.8756, 50, 0.317513, 143.375, 160.843, 9.47095, -12.7411
"Med_NSS_2(1)", "00:00:00.152", 1, 37, 108.772, 116.735, 12.6804, 50, 0.253608, 136.537, 159.557, 8.72266, -9.2037
"Med_NSS_2(1)", "00:00:00.152", 1, 38, 113.743, 111.669, 7.09725, 50, 0.141945, 135.543, 159.397, 4.9707, -5.06588
"Med_NSS_2(1)", "00:00:00.152", 1, 39, 123.158, 98.603, 16.1046, 50, 0.322092, 144.226, 157.767, 9.4146, -13.0661
"Med_NSS_2(1)", "00:00:00.152", 1, 40, 127.838, 94.4265, 6.27255, 50, 0.125451, 131.746, 158.93, 4.67995, -4.17648
"Med_NSS_2(1)", "00:00:00.153", 1, 41, 128.509, 93.6562, 1.02153, 50, 0.0204306, 138.945, 159.016, 0.670921, -0.770317
"Med_NSS_2(1)", "00:00:00.153", 1, 42, 133.717, 87.5037, 8.06082, 50, 0.161216, 139.752, 159.803, 5.2081, -6.15244
"Med_NSS_2(1)", "00:00:00.153", 1, 43, 135.504, 86.868, 1.89705, 50, 0.037941, 109.58, 160.958, 1.78735, -0.635735
"Med_NSS_2(1)", "00:00:00.153", 1, 44, 140.547, 81.5459, 7.33212, 50, 0.146642, 136.541, 162.491, 5.04335, -5.32209
"Med_NSS_2(1)", "00:00:00.153", 1, 45, 142.102, 81.2732, 1.57877, 50, 0.0315754, 99.9474, 163.702, 1.55504, -0.27272
"Med_NSS_2(1)", "00:00:00.153", 1, 46, 141.978, 81.2288, 0.131818, 50, 0.00263635, -109.664, 163.573, -0.12413, -0.0443573
"Med_NSS_2(1)", "00:00:00.154", 1, 47, 144.93, 78.0275, 4.35439, 50, 0.0870878, 137.323, 164.6, 2.95171, -3.20127
"Med_NSS_2(1)", "00:00:00.154", 1, 48, 145.026, 78.0265, 0.0955254, 50, 0.00191051, 90.6087, 164.683, 0.09552, -0.00101471
"Med_NSS_2(1)", "00:00:00.154", 1, 49, 146.709, 76.6443, 2.17813, 50, 0.0435626, 129.39, 165.523, 1.68335, -1.38224
"Med_NSS_2(1)", "00:00:00.154", 1, 50, 147.033, 77.0942, 0.554219, 50, 0.0110844, 35.735, 166.018, 0.323685, 0.449875
"Med_NSS_2(1)", "00:00:00.154", 1, 51, 147.033, 77.0942, 0, 50, 0, 0, 166.018, 0, 0
"Med_NSS_2(1)", "00:00:00.155", 1, 52, 147.48, 76.9423, 0.472809, 50, 0.00945617, 108.73, 166.345, 0.447769, -0.151825
"Med_NSS_2(1)", "00:00:00.155", 1, 53, 147.036, 77.1448, 0.488425, 50, 0.00976851, -65.5071, 166.045, -0.444473, 0.202492
"Med_NSS_2(1)", "00:00:00.155", 1, 54, 147.036, 77.1448, 0, 50, 0, 0, 166.045, 0, 0
"Med_NSS_2(1)", "00:00:00.155", 1, 55, 145.944, 77.6414, 1.19994, 50, 0.0239987, -65.5537, 165.311, -1.09236, 0.496582
"Med_NSS_2(1)", "00:00:00.155", 1, 56, 145.822, 78.2636, 0.633872, 50, 0.0126774, -11.0232, 165.497, -0.121201, 0.622177
"Med_NSS_2(1)", "00:00:00.155", 1, 57, 143.238, 79.1341, 2.72658, 50, 0.0545316, -71.3811, 163.644, -2.58388, 0.870522
"Med_NSS_2(1)", "00:00:00.155", 1, 58, 142.705, 79.213, 0.53935, 50, 0.010787, -81.5928, 163.216, -0.533554, 0.0788574
"Med_NSS_2(1)", "00:00:00.156", 1, 59, 142.705, 79.213, 0, 50, 0, 0, 163.216, 0, 0
"Med_NSS_2(1)", "00:00:00.156", 1, 60, 138.008, 81.8396, 5.38138, 50, 0.107628, -60.7845, 160.449, -4.69681, 2.62663
"Med_NSS_2(1)", "00:00:00.156", 1, 61, 138.035, 81.7522, 0.091568, 50, 0.00183136, 162.716, 160.428, 0.0272064, -0.0874329
"Med_NSS_2(1)", "00:00:00.156", 1, 62, 135.785, 83.4817, 2.83852, 50, 0.0567705, -52.4616, 159.395, -2.25079, 1.72949
"Med_NSS_2(1)", "00:00:00.156", 1, 63, 136.15, 81.6624, 1.85569, 50, 0.0371137, 168.627, 158.763, 0.365952, -1.81924
"Med_NSS_2(1)", "00:00:00.157", 1, 64, 136.102, 81.0888, 0.575717, 50, 0.0115143, -175.13, 158.427, -0.0488739, -0.573639
"Med_NSS_2(1)", "00:00:00.157", 1, 65, 131.274, 78.6067, 5.42804, 50, 0.108561, -117.212, 153.01, -4.82729, -2.48212
"Med_NSS_2(1)", "00:00:00.157", 1, 66, 129.733, 78.1327, 1.61223, 50, 0.0322446, -107.095, 151.445, -1.541, -0.47393
"Med_NSS_2(1)", "00:00:00.157", 1, 67, 129.514, 77.8716, 0.341262, 50, 0.00682525, -139.916, 151.122, -0.219742, -0.261101
"Med_NSS_2(1)", "00:00:00.157", 1, 68, 125.218, 75.7597, 4.78673, 50, 0.0957347, -116.181, 146.352, -4.29562, -2.11198
"Med_NSS_2(1)", "00:00:00.157", 1, 69, 124.113, 76.2904, 1.22554, 50, 0.0245107, -64.3385, 145.686, -1.10466, 0.530724
"Med_NSS_2(1)", "00:00:00.158", 1, 70, 119.135, 79.5016, 5.92449, 50, 0.11849, -57.1781, 143.226, -4.9787, 3.21126
"Med_NSS_2(1)", "00:00:00.158", 1, 71, 119.537, 79.7397, 0.467423, 50, 0.00934846, 59.3848, 143.692, 0.402267, 0.238045
"Med_NSS_2(1)", "00:00:00.158", 1, 72, 120.842, 79.626, 1.31, 50, 0.0261999, 94.9793, 144.717, 1.30505, -0.113701
"Med_NSS_2(1)", "00:00:00.158", 1, 73, 127.514, 86.9396, 9.89951, 50, 0.19799, 42.3716, 154.331, 6.67163, 7.31366
"Med_NSS_2(1)", "00:00:00.158", 1, 74, 127.796, 86.3583, 0.646256, 50, 0.0129251, 154.092, 154.239, 0.282364, -0.581306
"Med_NSS_2(1)", "00:00:00.158", 1, 75, 132.676, 92.9866, 8.23116, 50, 0.164623, 36.3645, 162.017, 4.88042, 6.62823
"Med_NSS_2(1)", "00:00:00.159", 1, 76, 135.04, 94.7812, 2.96794, 50, 0.0593588, 52.7939, 164.983, 2.36386, 1.79467
"Med_NSS_2(1)", "00:00:00.159", 1, 77, 135.187, 94.9534, 0.226384, 50, 0.00452767, 40.4828, 165.202, 0.146973, 0.172188
"Med_NSS_2(1)", "00:00:00.159", 1, 78, 141.778, 103.205, 10.5608, 50, 0.211217, 38.6166, 175.363, 6.59106, 8.2516
"Med_NSS_2(1)", "00:00:00.159", 1, 79, 146.967, 106.368, 6.07636, 50, 0.121527, 58.6345, 181.42, 5.18839, 3.16273
"Med_NSS_2(1)", "00:00:00.159", 1, 80, 158.363, 116.378, 15.1683, 50, 0.303366, 48.7068, 196.526, 11.3966, 10.0098
"Med_NSS_2(1)", "00:00:00.160", 1, 81, 165.328, 120.351, 8.01861, 50, 0.160372, 60.2916, 204.494, 6.96463, 3.97392
"Med_NSS_2(1)", "00:00:00.160", 1, 82, 168.502, 122.208, 3.67753, 50, 0.0735505, 59.6796, 208.153, 3.1745, 1.85654
"Med_NSS_2(1)", "00:00:00.160", 1, 83, 176.948, 129.886, 11.4139, 50, 0.228279, 47.7249, 219.501, 8.44543, 7.67806
"Med_NSS_2(1)", "00:00:00.160", 1, 84, 181.147, 132.264, 4.82605, 50, 0.096521, 60.4783, 224.295, 4.19948, 2.37805
"Med_NSS_2(1)", "00:00:00.160", 1, 85, 182.251, 132.559, 1.1428, 50, 0.0228559, 75.0199, 225.361, 1.10396, 0.295395
"Med_NSS_2(1)", "00:00:00.160", 1, 86, 189.43, 138.691, 9.44086, 50, 0.188817, 49.496, 234.774, 7.17845, 6.13185
"Med_NSS_2(1)", "00:00:00.161", 1, 87, 194.456, 140.871, 5.47841, 50, 0.109568, 66.5582, 240.12, 5.02625, 2.17941
"Med_NSS_2(1)", "00:00:00.161", 1, 88, 202.904, 145.188, 9.48703, 50, 0.189741, 62.9309, 249.498, 8.4478, 4.31721
"Med_NSS_2(1)", "00:00:00.161", 1, 89, 207.754, 146.717, 5.0857, 50, 0.101714, 72.5051, 254.338, 4.85045, 1.52887
"Med_NSS_2(1)", "00:00:00.161", 1, 90, 209.974, 147.645, 2.40591, 50, 0.0481182, 67.3001, 256.687, 2.21954, 0.928452
"Med_NSS_2(1)", "00:00:00.163", 1, 91, 215.434, 151.108, 6.46551, 50, 0.12931, 57.6208, 263.145, 5.46027, 3.46242
"Med_NSS_2(1)", "00:00:00.163", 1, 92, 218.036, 152.081, 2.77823, 50, 0.0555646, 69.4842, 265.835, 2.60202, 0.973679
"Med_NSS_2(1)", "00:00:00.163", 1, 93, 222.794, 155.601, 5.91884, 50, 0.118377, 53.5076, 271.752, 4.75836, 3.52003
"Med_NSS_2(1)", "00:00:00.163", 1, 94, 225.322, 156.564, 2.705, 50, 0.0541, 69.1581, 274.376, 2.528, 0.962418
"Med_NSS_2(1)", "00:00:00.163", 1, 95, 225.931, 157.204, 0.883408, 50, 0.0176682, 43.5583, 275.242, 0.608749, 0.640182
"Med_NSS_2(1)", "00:00:00.164", 1, 96, 230.265, 159.616, 4.96021, 50, 0.0992042, 60.9011, 280.177, 4.33414, 2.41225
"Med_NSS_2(1)", "00:00:00.164", 1, 97, 232.59, 160.328, 2.43142, 50, 0.0486284, 72.9708, 282.495, 2.32481, 0.712067
"Med_NSS_2(1)", "00:00:00.164", 1, 98, 233.831, 160.059, 1.2698, 50, 0.025396, 102.224, 283.365, 1.24101, -0.26886
"Med_NSS_2(1)", "00:00:00.164", 1, 99, 239.493, 162.288, 6.08473, 50, 0.121695, 68.5191, 289.3, 5.66208, 2.22818
"Med_NSS_2(1)", "00:00:00.164", 1, 100, 242.74, 162.368, 3.24753, 50, 0.0649506, 88.5834, 292.037, 3.24654, 0.0802917
"Med_NSS_2(1)", "00:00:00.165", 1, 101, 250.747, 163.229, 8.05322, 50, 0.161064, 83.8639, 299.195, 8.00708, 0.860825
"Med_NSS_2(1)", "00:00:00.165", 1, 102, 256.278, 163.43, 5.53486, 50, 0.110697, 87.9181, 303.953, 5.5312, 0.20108
"Med_NSS_2(1)", "00:00:00.165", 1, 103, 259.444, 163.322, 3.16759, 50, 0.0633518, 91.9581, 306.57, 3.16574, -0.108231
"Med_NSS_2(1)", "00:00:00.165", 1, 104, 265.328, 164.444, 5.99086, 50, 0.119817, 79.1998, 312.155, 5.88474, 1.1226
"Med_NSS_2(1)", "00:00:00.165", 1, 105, 268.779, 163.823, 3.50658, 50, 0.0701317, 100.211, 314.77, 3.45105, -0.621597
"Med_NSS_2(1)", "00:00:00.165", 1, 106, 269.791, 163.394, 1.09894, 50, 0.0219788, 112.941, 315.413, 1.01202, -0.428345
"Med_NSS_2(1)", "00:00:00.165", 1, 107, 269.947, 163.393, 0.155556, 50, 0.00311111, 90.5677, 315.545, 0.155548, -0.00154114
"Med_NSS_2(1)", "00:00:00.166", 1, 108, 269.947, 163.393, 0, 50, 0, 0, 315.545, 0, 0
"Med_NSS_2(1)", "00:00:00.166", 1, 109, 267.732, 159.115, 4.81736, 50, 0.0963473, -152.625, 311.445, -2.21512, -4.27788
"Med_NSS_2(1)", "00:00:00.166", 1, 110, 267.917, 159.645, 0.561136, 50, 0.0112227, 19.243, 311.875, 0.184937, 0.529785
"Med_NSS_2(1)", "00:00:00.166", 1, 111, 268.003, 160.279, 0.63967, 50, 0.0127934, 7.70429, 312.273, 0.0857544, 0.633896
"Med_NSS_2(1)", "00:00:00.166", 1, 112, 264.695, 150.23, 10.5785, 50, 0.21157, -161.782, 304.356, -3.30728, -10.0482
"Med_NSS_2(1)", "00:00:00.166", 1, 113, 264.965, 150.437, 0.33973, 50, 0.0067946, 52.6031, 304.693, 0.269897, 0.206329
"Med_NSS_2(1)", "00:00:00.167", 1, 114, 267.019, 141.568, 9.10391, 50, 0.182078, 166.959, 302.226, 2.05426, -8.86911
"Med_NSS_2(1)", "00:00:00.167", 1, 115, 267.53, 140.769, 0.947919, 50, 0.0189584, 147.38, 302.305, 0.510986, -0.798401
"Med_NSS_2(1)", "00:00:00.167", 1, 116, 267.406, 141.57, 0.81078, 50, 0.0162156, -8.80552, 302.569, -0.124115, 0.801224
"Med_NSS_2(1)", "00:00:00.167", 1, 117, 270.542, 130.336, 11.6637, 50, 0.233275, 164.406, 300.3, 3.13547, -11.2344
"Med_NSS_2(1)", "00:00:00.167", 1, 118, 272.512, 127.225, 3.68236, 50, 0.0736473, 147.652, 300.747, 1.97031, -3.1109
"Med_NSS_2(1)", "00:00:00.167", 1, 119, 275.914, 118.308, 9.54344, 50, 0.190869, 159.119, 300.209, 3.40161, -8.91663
"Med_NSS_2(1)", "00:00:00.167", 1, 120, 276.093, 117.746, 0.589946, 50, 0.0117989, 162.32, 300.152, 0.179169, -0.56208
"Med_NSS_2(1)", "00:00:00.168", 1, 121, 276.093, 117.746, 0, 50, 0, 0, 300.152, 0, 0
"Med_NSS_2(1)", "00:00:00.168", 1, 122, 276.781, 113.193, 4.60535, 50, 0.0921069, 171.408, 299.032, 0.688049, -4.55366
"Med_NSS_2(1)", "00:00:00.168", 1, 123, 276.785, 113.682, 0.489118, 50, 0.00978235, 0.518363, 299.222, 0.00442505, 0.489098
"Med_NSS_2(1)", "00:00:00.168", 1, 124, 276.868, 114.297, 0.620853, 50, 0.0124171, 7.63513, 299.532, 0.082489, 0.615349
"Med_NSS_2(1)", "00:00:00.169", 1, 125, 272.015, 109.187, 7.04675, 50, 0.140935, -136.479, 293.111, -4.85257, -5.10972
"Med_NSS_2(1)", "00:00:00.169", 1, 126, 269.758, 106.764, 3.31157, 50, 0.0662314, -137.036, 290.117, -2.25699, -2.42332
"Med_NSS_2(1)", "00:00:00.169", 1, 127, 261.401, 98.5667, 11.7066, 50, 0.234132, -134.446, 279.367, -8.35751, -8.19734
"Med_NSS_2(1)", "00:00:00.169", 1, 128, 255.735, 94.3294, 7.07469, 50, 0.141494, -126.794, 272.578, -5.66534, -4.23735
"Med_NSS_2(1)", "00:00:00.169", 1, 129, 253.897, 92.3717, 2.68581, 50, 0.0537163, -136.794, 270.178, -1.83879, -1.95766
"Med_NSS_2(1)", "00:00:00.169", 1, 130, 244.661, 82.522, 13.5022, 50, 0.270043, -136.844, 258.203, -9.23531, -9.84976
"Med_NSS_2(1)", "00:00:00.170", 1, 131, 240.606, 79.278, 5.19348, 50, 0.10387, -128.654, 253.33, -4.05576, -3.24393
"Med_NSS_2(1)", "00:00:00.170", 1, 132, 231.355, 66.4241, 15.8364, 50, 0.316729, -144.26, 240.702, -9.25029, -12.854
"Med_NSS_2(1)", "00:00:00.170", 1, 133, 229.852, 64.3189, 2.58692, 50, 0.0517384, -144.466, 238.681, -1.50349, -2.10515
"Med_NSS_2(1)", "00:00:00.170", 1, 134, 230.353, 64.9021, 0.768832, 50, 0.0153766, 40.666, 239.321, 0.501007, 0.583176
"Med_NSS_2(1)", "00:00:00.170", 1, 135, 227.949, 62.2492, 3.57982, 50, 0.0715963, -137.823, 236.296, -2.40359, -2.65289
"Med_NSS_2(1)", "00:00:00.170", 1, 136, 228.035, 62.1749, 0.113649, 50, 0.00227298, 130.826, 236.359, 0.0859985, -0.0742989
"Med_NSS_2(1)", "00:00:00.171", 1, 137, 227.508, 62.7381, 0.771098, 50, 0.015422, -43.0814, 236, -0.526688, 0.563198
"Med_NSS_2(1)", "00:00:00.171", 1, 138, 227.925, 63.0163, 0.501161, 50, 0.0100232, 56.2851, 236.476, 0.41687, 0.278175
"Med_NSS_2(1)", "00:00:00.171", 1, 139, 227.925, 63.0163, 0, 50, 0, 0, 236.476, 0, 0
"Med_NSS_2(1)", "00:00:00.171", 1, 140, 229.399, 64.7357, 2.26481, 50, 0.0452961, 40.6051, 238.359, 1.47403, 1.71947
"Med_NSS_2(1)", "00:00:00.171", 1, 141, 229.198, 65.4709, 0.762107, 50, 0.0152421, -15.2902, 238.366, -0.200974, 0.73513
"Med_NSS_2(1)", "00:00:00.172", 1, 142, 229.241, 65.5653, 0.103719, 50, 0.00207438, 24.4555, 238.433, 0.0429382, 0.0944138
"Med_NSS_2(1)", "00:00:00.172", 1, 143, 232.291, 71.6923, 6.84422, 50, 0.136884, 26.4639, 243.103, 3.05002, 6.12705
"Med_NSS_2(1)", "00:00:00.172", 1, 144, 231.975, 72.0615, 0.486381, 50, 0.00972761, -40.6197, 242.91, -0.31665, 0.369186
"Med_NSS_2(1)", "00:00:00.172", 1, 145, 236.221, 80.6235, 9.55699, 50, 0.19114, 26.3778, 249.6, 4.24605, 8.56196
"Med_NSS_2(1)", "00:00:00.172", 1, 146, 239.656, 84.4335, 5.12975, 50, 0.102595, 42.0363, 254.094, 3.43489, 3.80997
"Med_NSS_2(1)", "00:00:00.172", 1, 147, 240.883, 84.9107, 1.31702, 50, 0.0263404, 68.756, 255.411, 1.22752, 0.477211
"Med_NSS_2(1)", "00:00:00.172", 1, 148, 247.162, 95.4901, 12.3022, 50, 0.246044, 30.6875, 264.967, 6.27847, 10.5794
"Med_NSS_2(1)", "00:00:00.173", 1, 149, 251.868, 99.8118, 6.38926, 50, 0.127785, 47.4372, 270.924, 4.70592, 4.32169
"Med_NSS_2(1)", "00:00:00.173", 1, 150, 260.1, 113.28, 15.7846, 50, 0.315691, 31.4352, 283.697, 8.23218, 13.4679
"Med_NSS_2(1)", "00:00:00.173", 1, 151, 265.421, 117.727, 6.93512, 50, 0.138702, 50.1169, 290.359, 5.32169, 4.44697
"Med_NSS_2(1)", "00:00:00.173", 1, 152, 266.355, 118.863, 1.4706, 50, 0.0294121, 39.3987, 291.673, 0.933411, 1.13641
"Med_NSS_2(1)", "00:00:00.173", 1, 153, 270.25, 128.278, 10.1891, 50, 0.203782, 22.4752, 299.149, 3.89511, 9.41518
"Med_NSS_2(1)", "00:00:00.174", 1, 154, 271.905, 129.427, 2.01435, 50, 0.0402871, 55.2426, 301.137, 1.65494, 1.14839
"Med_NSS_2(1)", "00:00:00.174", 1, 155, 272.131, 129.237, 0.295628, 50, 0.00591256, 129.998, 301.26, 0.226471, -0.190018
"Med_NSS_2(1)", "00:00:00.174", 1, 156, 275.857, 136.92, 8.53935, 50, 0.170787, 25.8698, 307.968, 3.72595, 7.68361
"Med_NSS_2(1)", "00:00:00.174", 1, 157, 279.227, 139.107, 4.01724, 50, 0.0803448, 57.0224, 311.959, 3.37, 2.18663
"Med_NSS_2(1)", "00:00:00.174", 1, 158, 277.443, 150.481, 11.5132, 50, 0.230265, -8.91708, 315.625, -1.78461, 11.3741
"Med_NSS_2(1)", "00:00:00.174", 1, 159, 276.838, 150.36, 0.616807, 50, 0.0123361, -101.339, 315.035, -0.604767, -0.121277
"Med_NSS_2(1)", "00:00:00.174", 1, 160, 277.192, 148.885, 1.51683, 50, 0.0303366, 166.499, 314.646, 0.354126, -1.47491
"Med_NSS_2(1)", "00:00:00.175", 1, 161, 273.034, 152.321, 5.39396, 50, 0.107879, -50.4246, 312.649, -4.15759, 3.43646
"Med_NSS_2(1)", "00:00:00.175", 1, 162, 273.042, 151.373, 0.948382, 50, 0.0189676, 179.524, 312.195, 0.00787354, -0.948349
"Med_NSS_2(1)", "00:00:00.175", 1, 163, 269.228, 154.934, 5.21802, 50, 0.10436, -46.9667, 310.626, -3.81415, 3.5609
"Med_NSS_2(1)", "00:00:00.175", 1, 164, 268.905, 154.288, 0.722437, 50, 0.0144487, -153.386, 310.023, -0.323639, -0.645889
"Med_NSS_2(1)", "00:00:00.175", 1, 165, 268.951, 153.195, 1.09412, 50, 0.0218823, 177.578, 309.521, 0.0462341, -1.09314
"Med_NSS_2(1)", "00:00:00.176", 1, 166, 264.98, 155.782, 4.73969, 50, 0.0947938, -56.9114, 307.38, -3.97104, 2.58757
"Med_NSS_2(1)", "00:00:00.176", 1, 167, 265.045, 155.634, 0.162002, 50, 0.00324005, 156.132, 307.361, 0.0655518, -0.148148
"Med_NSS_2(1)", "00:00:00.176", 1, 168, 265.045, 155.634, 0, 50, 0, 0, 307.361, 0, 0
"Med_NSS_2(1)", "00:00:00.176", 1, 169, 262.334, 158.395, 3.87011, 50, 0.0774021, -44.479, 306.444, -2.71158, 2.76135
"Med_NSS_2(1)", "00:00:00.176", 1, 170, 262.043, 157.973, 0.512904, 50, 0.0102581, -145.473, 305.977, -0.29071, -0.422562
"Med_NSS_2(1)", "00:00:00.177", 1, 171, 259.6, 160.654, 3.62748, 50, 0.0725496, -42.338, 305.29, -2.44312, 2.68138
"Med_NSS_2(1)", "00:00:00.177", 1, 172, 259.996, 161.013, 0.533962, 50, 0.0106792, 47.8597, 305.815, 0.395935, 0.358261
"Med_NSS_2(1)", "00:00:00.177", 1, 173, 259.996, 161.015, 0.00197234, 50, 3.94468e-005, 8.00474, 305.816, 0.000274658, 0.00195313
"Med_NSS_2(1)", "00:00:00.177", 1, 174, 258.902, 163.61, 2.81692, 50, 0.0563383, -22.8509, 306.266, -1.0939, 2.59584
"Med_NSS_2(1)", "00:00:00.177", 1, 175, 258.956, 163.894, 0.288914, 50, 0.00577827, 10.7818, 306.463, 0.0540466, 0.283813
"Med_NSS_2(1)", "00:00:00.177", 1, 176, 258.163, 165.387, 1.68998, 50, 0.0337997, -27.9765, 306.596, -0.792786, 1.49249
"Med_NSS_2(1)", "00:00:00.177", 1, 177, 258.078, 165.025, 0.371423, 50, 0.00742845, -166.724, 306.329, -0.0852966, -0.361496
"Med_NSS_2(1)", "00:00:00.178", 1, 178, 258.079, 165.022, 0.00362469, 50, 7.24939e-005, 162.862, 306.328, 0.00106812, -0.00346375
"Med_NSS_2(1)", "00:00:00.178", 1, 179, 256.156, 165.326, 1.94715, 50, 0.038943, -81.0134, 304.875, -1.92325, 0.304153
"Med_NSS_2(1)", "00:00:00.178", 1, 180, 256.705, 165.202, 0.562261, 50, 0.0112452, 102.678, 305.269, 0.548553, -0.123398
"Med_NSS_2(1)", "00:00:00.178", 1, 181, 257.404, 164.953, 0.742916, 50, 0.0148583, 109.658, 305.723, 0.699615, -0.249924
"Med_NSS_2(1)", "00:00:00.178", 1, 182, 254.145, 165.175, 3.26676, 50, 0.0653352, -86.0895, 303.105, -3.25916, 0.222794
"Med_NSS_2(1)", "00:00:00.179", 1, 183, 254.887, 165.048, 0.752535, 50, 0.0150507, 99.7348, 303.658, 0.741699, -0.127243
"Med_NSS_2(1)", "00:00:00.179", 1, 184, 259.549, 165.615, 4.69705, 50, 0.0939409, 83.069, 307.887, 4.66272, 0.566818
"Med_NSS_2(1)", "00:00:00.179", 1, 185, 262.806, 166.412, 3.35285, 50, 0.067057, 76.2531, 311.063, 3.25681, 0.796753
"Med_NSS_2(1)", "00:00:00.179", 1, 186, 264.217, 166.099, 1.44528, 50, 0.0289056, 102.485, 312.089, 1.4111, -0.312454
"Med_NSS_2(1)", "00:00:00.179", 1, 187, 267.772, 167.434, 3.7973, 50, 0.075946, 69.4134, 315.81, 3.55481, 1.33522
"Med_NSS_2(1)", "00:00:00.179", 1, 188, 269.122, 167.02, 1.41178, 50, 0.0282355, 107.062, 316.737, 1.34964, -0.41423
"Med_NSS_2(1)", "00:00:00.179", 1, 189, 273.144, 167.433, 4.04325, 50, 0.080865, 84.1409, 320.377, 4.02213, 0.41275
"Med_NSS_2(1)", "00:00:00.180", 1, 190, 277.008, 165.21, 4.45783, 50, 0.0891566, 119.916, 322.533, 3.86386, -2.22325
"Med_NSS_2(1)", "00:00:00.180", 1, 191, 280.224, 163.514, 3.63584, 50, 0.0727169, 117.792, 324.442, 3.21643, -1.69527
"Med_NSS_2(1)", "00:00:00.180", 1, 192, 284.835, 150.024, 14.2566, 50, 0.285133, 161.131, 321.929, 4.61066, -13.4905
"Med_NSS_2(1)", "00:00:00.180", 1, 193, 285.357, 149.156, 1.01284, 50, 0.0202568, 148.959, 321.988, 0.522278, -0.867798
"Med_NSS_2(1)", "00:00:00.180", 1, 194, 280.679, 141.353, 9.09849, 50, 0.18197, -149.056, 314.263, -4.67844, -7.80351
"Med_NSS_2(1)", "00:00:00.181", 1, 195, 280.161, 142.185, 0.980562, 50, 0.0196112, -31.8658, 314.177, -0.51767, 0.832779
"Med_NSS_2(1)", "00:00:00.181", 1, 196, 279.098, 143.553, 1.73184, 50, 0.0346367, -37.8681, 313.852, -1.06308, 1.36716
"Med_NSS_2(1)", "00:00:00.181", 1, 197, 276.099, 132.935, 11.0333, 50, 0.220665, -164.229, 306.435, -2.99887, -10.6179
"Med_NSS_2(1)", "00:00:00.181", 1, 198, 277.722, 130.127, 3.24293, 50, 0.0648585, 149.98, 306.696, 1.62247, -2.80788
"Med_NSS_2(1)", "00:00:00.181", 1, 199, 280.064, 127.397, 3.59694, 50, 0.0719389, 139.36, 307.679, 2.34271, -2.72942
"Med_NSS_2(1)", "00:00:00.181", 1, 200, 279.752, 115.284, 12.1179, 50, 0.242357, -178.524, 302.575, -0.312195, -12.1138
"Med_NSS_2(1)", "00:00:00.182", 1, 201, 283.522, 107.87, 8.31688, 50, 0.166338, 153.048, 303.349, 3.76953, -7.41358
"Med_NSS_2(1)", "00:00:00.182", 1, 202, 281.079, 92.8334, 15.2336, 50, 0.304672, -170.774, 296.013, -2.4425, -15.0365
"Med_NSS_2(1)", "00:00:00.182", 1, 203, 284.179, 87.0989, 6.51889, 50, 0.130378, 151.604, 297.227, 3.10019, -5.73452
"Med_NSS_2(1)", "00:00:00.182", 1, 204, 282.362, 88.4702, 2.27634, 50, 0.0455269, -52.9564, 295.898, -1.81693, 1.37132
"Med_NSS_2(1)", "00:00:00.182", 1, 205, 275.169, 79.8234, 11.2475, 50, 0.22495, -140.244, 286.513, -7.19305, -8.64677
"Med_NSS_2(1)", "00:00:00.182", 1, 206, 274.735, 79.6881, 0.454579, 50, 0.00909157, -107.323, 286.059, -0.43396, -0.135353
"Med_NSS_2(1)", "00:00:00.183", 1, 207, 273.482, 70.4521, 9.32055, 50, 0.186411, -172.274, 282.411, -1.25299, -9.23595
"Med_NSS_2(1)", "00:00:00.183", 1, 208, 275.058, 68.116, 2.81781, 50, 0.0563562, 146.002, 283.367, 1.57562, -2.33612
"Med_NSS_2(1)", "00:00:00.183", 1, 209, 275.961, 67.1457, 1.32583, 50, 0.0265166, 137.044, 284.013, 0.903473, -0.970345
"Med_NSS_2(1)", "00:00:00.183", 1, 210, 274.725, 60.9503, 6.31753, 50, 0.126351, -168.714, 281.405, -1.23642, -6.19535
"Med_NSS_2(1)", "00:00:00.183", 1, 211, 275.389, 60.7306, 0.699003, 50, 0.0139801, 108.32, 282.005, 0.663574, -0.219715
"Med_NSS_2(1)", "00:00:00.184", 1, 212, 275.59, 60.5964, 0.24175, 50, 0.00483501, 123.732, 282.173, 0.20105, -0.134247
"Med_NSS_2(1)", "00:00:00.184", 1, 213, 273.165, 59.3265, 2.73715, 50, 0.0547431, -117.641, 279.533, -2.42477, -1.26983
"Med_NSS_2(1)", "00:00:00.184", 1, 214, 273.665, 58.6467, 0.843759, 50, 0.0168752, 143.683, 279.878, 0.499725, -0.679855
"Med_NSS_2(1)", "00:00:00.184", 1, 215, 271.951, 58.5315, 1.717, 50, 0.03434, -93.845, 278.179, -1.71313, -0.115135
"Med_NSS_2(1)", "00:00:00.184", 1, 216, 272.74, 58.6195, 0.793075, 50, 0.0158615, 83.629, 278.968, 0.788177, 0.0880051
"Med_NSS_2(1)", "00:00:00.184", 1, 217, 273.338, 58.8921, 0.657386, 50, 0.0131477, 65.5085, 279.61, 0.598236, 0.272526
"Med_NSS_2(1)", "00:00:00.184", 1, 218, 271.256, 59.1123, 2.09377, 50, 0.0418754, -83.9616, 277.622, -2.08215, 0.220257
"Med_NSS_2(1)", "00:00:00.185", 1, 219, 271.584, 58.7791, 0.468018, 50, 0.00936036, 135.396, 277.872, 0.328644, -0.333218
"Med_NSS_2(1)", "00:00:00.185", 1, 220, 269.829, 59.074, 1.7797, 50, 0.0355939, -80.4626, 276.22, -1.7551, 0.294884
"Med_NSS_2(1)", "00:00:00.185", 1, 221, 270.858, 58.9813, 1.03243, 50, 0.0206486, 95.1518, 277.205, 1.02826, -0.0927048
"Med_NSS_2(1)", "00:00:00.185", 1, 222, 272.271, 58.9823, 1.41376, 50, 0.0282752, 89.959, 278.587, 1.41376, 0.00101471
"Med_NSS_2(1)", "00:00:00.185", 1, 223, 270.917, 60.2401, 1.84846, 50, 0.0369693, -47.123, 277.533, -1.35458, 1.25774
"Med_NSS_2(1)", "00:00:00.186", 1, 224, 272.475, 60.2933, 1.55898, 50, 0.0311797, 88.0428, 279.066, 1.55807, 0.0532455
"Med_NSS_2(1)", "00:00:00.186", 1, 225, 273.52, 60.3401, 1.04585, 50, 0.020917, 87.4325, 280.096, 1.0448, 0.0468521
"Med_NSS_2(1)", "00:00:00.186", 1, 226, 275.082, 63.3554, 3.39585, 50, 0.067917, 27.385, 282.283, 1.56198, 3.0153
"Med_NSS_2(1)", "00:00:00.186", 1, 227, 275.685, 63.5251, 0.626665, 50, 0.0125333, 74.2955, 282.909, 0.603271, 0.169624
"Med_NSS_2(1)", "00:00:00.186", 1, 228, 278.705, 72.3463, 9.32405, 50, 0.186481, 18.9025, 287.942, 3.0206, 8.82122
"Med_NSS_2(1)", "00:00:00.186", 1, 229, 281.941, 76.3864, 5.17625, 50, 0.103525, 38.6932, 292.106, 3.23593, 4.04008
"Med_NSS_2(1)", "00:00:00.186", 1, 230, 283.272, 78.0418, 2.12373, 50, 0.0424745, 38.7847, 293.825, 1.33029, 1.65546
"Med_NSS_2(1)", "00:00:00.187", 1, 231, 287.906, 91.0948, 13.8511, 50, 0.277022, 19.5453, 301.973, 4.63391, 13.053
"Med_NSS_2(1)", "00:00:00.187", 1, 232, 289.672, 94.8213, 4.12375, 50, 0.082475, 25.357, 304.796, 1.76602, 3.72646
"Med_NSS_2(1)", "00:00:00.187", 1, 233, 291.037, 107.258, 12.5119, 50, 0.250239, 6.26484, 310.172, 1.36536, 12.4372
"Med_NSS_2(1)", "00:00:00.187", 1, 234, 292.111, 112.112, 4.9711, 50, 0.0994219, 12.4833, 312.887, 1.07452, 4.85358
"Med_NSS_2(1)", "00:00:00.187", 1, 235, 291.985, 112.344, 0.264306, 50, 0.00528611, -28.6691, 312.852, -0.126801, 0.231903
"Med_NSS_2(1)", "00:00:00.188", 1, 236, 292.28, 123.578, 11.238, 50, 0.224759, 1.50645, 317.331, 0.295441, 11.2341
"Med_NSS_2(1)", "00:00:00.188", 1, 237, 292.828, 126.249, 2.72665, 50, 0.054533, 11.5871, 318.884, 0.547668, 2.67108
"Med_NSS_2(1)", "00:00:00.188", 1, 238, 292.789, 125.862, 0.388638, 50, 0.00777276, -174.213, 318.695, -0.0391846, -0.386658
"Med_NSS_2(1)", "00:00:00.188", 1, 239, 291.894, 130.945, 5.16071, 50, 0.103214, -9.97938, 319.92, -0.894318, 5.08263
"Med_NSS_2(1)", "00:00:00.188", 1, 240, 291.639, 130.48, 0.530477, 50, 0.0106095, -151.189, 319.497, -0.255646, -0.464813
"Med_NSS_2(1)", "00:00:00.189", 1, 241, 281, 138, 13.0279, 50, 0.260558, -54.7462, 313.058, -10.6386, 7.51971
"Med_NSS_2(1)", "00:00:00.189", 1, 242, 269.395, 140.612, 11.8952, 50, 0.237905, -77.3163, 303.884, -11.6049, 2.61183
"Med_NSS_2(1)", "00:00:00.189", 1, 243, 257.075, 143.701, 12.7012, 50, 0.254025, -75.9233, 294.513, -12.3198, 3.08922
"Med_NSS_2(1)", "00:00:00.189", 1, 244, 236.387, 147.193, 20.9809, 50, 0.419619, -80.4194, 278.468, -20.6883, 3.49199
"Med_NSS_2(1)", "00:00:00.189", 1, 245, 220.806, 152.657, 16.5115, 50, 0.33023, -70.6751, 268.439, -15.5812, 5.46408
"Med_NSS_2(1)", "00:00:00.189", 1, 246, 206.542, 159.819, 15.9608, 50, 0.319215, -63.3396, 261.154, -14.2638, 7.16164
"Med_NSS_2(1)", "00:00:00.189", 1, 247, 198.926, 165.724, 9.63759, 50, 0.192752, -52.2116, 258.913, -7.61638, 5.90541
"Med_NSS_2(1)", "00:00:00.190", 1, 248, 196.775, 167.4, 2.72634, 50, 0.0545269, -52.071, 258.347, -2.15047, 1.67584
"Med_NSS_2(1)", "00:00:00.190", 1, 249, 193.456, 170.335, 4.43071, 50, 0.0886141, -48.5075, 257.759, -3.31879, 2.93544
"Med_NSS_2(1)", "00:00:00.190", 1, 250, 192.965, 170.177, 0.51636, 50, 0.0103272, -107.879, 257.285, -0.491425, -0.158524
"Med_NSS_2(1)", "00:00:00.190", 1, 251, 189.558, 172.326, 4.02829, 50, 0.0805658, -57.7575, 256.18, -3.40712, 2.14911
"Med_NSS_2(1)", "00:00:00.190", 1, 252, 189.248, 172.352, 0.310661, 50, 0.00621322, -85.1313, 255.969, -0.30954, 0.0263672
"Med_NSS_2(1)", "00:00:00.191", 1, 253, 189.653, 171.879, 0.622394, 50, 0.0124479, 139.46, 255.951, 0.404541, -0.472992
"Med_NSS_2(1)", "00:00:00.191", 1, 254, 188.072, 173.737, 2.43896, 50, 0.0487791, -40.3967, 256.038, -1.58063, 1.85745
"Med_NSS_2(1)", "00:00:00.191", 1, 255, 188.214, 174.021, 0.317416, 50, 0.00634831, 26.5404, 256.335, 0.14183, 0.283966
"Med_NSS_2(1)", "00:00:00.191", 1, 256, 188.828, 173.888, 0.628642, 50, 0.0125728, 102.156, 256.697, 0.614548, -0.13237
"Med_NSS_2(1)", "00:00:00.191", 1, 257, 188.794, 175.005, 1.11731, 50, 0.0223462, -1.77493, 257.43, -0.0346069, 1.11678
"Med_NSS_2(1)", "00:00:00.191", 1, 258, 189.478, 174.938, 0.687511, 50, 0.0137502, 95.6221, 257.886, 0.684204, -0.0673523
"Med_NSS_2(1)", "00:00:00.191", 1, 259, 189.189, 174.447, 0.569881, 50, 0.0113976, -149.519, 257.341, -0.289078, -0.491119
"Med_NSS_2(1)", "00:00:00.192", 1, 260, 189.108, 173.999, 0.454754, 50, 0.00909508, -169.706, 256.978, -0.0812683, -0.447433
"Med_NSS_2(1)", "00:00:00.192", 1, 261, 189.108, 173.999, 0, 50, 0, 0, 256.978, 0, 0
"Med_NSS_2(1)", "00:00:00.192", 1, 262, 188.722, 173.053, 1.02173, 50, 0.0204347, -157.803, 256.053, -0.386002, -0.946014
"Med_NSS_2(1)", "00:00:00.192", 1, 263, 189.08, 172.967, 0.368301, 50, 0.00736601, 103.511, 256.259, 0.358109, -0.0860443
"Med_NSS_2(1)", "00:00:00.192", 1, 264, 190.09, 173.819, 1.32138, 50, 0.0264276, 49.8903, 257.58, 1.0106, 0.851303
"Med_NSS_2(1)", "00:00:00.193", 1, 265, 190.005, 174.015, 0.21438, 50, 0.00428759, -23.37, 257.65, -0.0850372, 0.196793
"Med_NSS_2(1)", "00:00:00.193", 1, 266, 190.01, 174.016, 0.00436444, 50, 8.72888e-005, 83.1732, 257.653, 0.0043335, 0.000518799
"Med_NSS_2(1)", "00:00:00.193", 1, 267, 192.305, 174.512, 2.34816, 50, 0.0469633, 77.8056, 259.684, 2.29518, 0.496002
"Med_NSS_2(1)", "00:00:00.193", 1, 268, 192.921, 175.249, 0.960481, 50, 0.0192096, 39.8873, 260.635, 0.615936, 0.736984
"Med_NSS_2(1)", "00:00:00.193", 1, 269, 193.813, 175.254, 0.892393, 50, 0.0178479, 89.6895, 261.3, 0.89238, 0.00483704
"Med_NSS_2(1)", "00:00:00.193", 1, 270, 198.712, 173.647, 5.15515, 50, 0.103103, 108.159, 263.893, 4.89841, -1.60661
"Med_NSS_2(1)", "00:00:00.194", 1, 271, 199.473, 173.989, 0.834549, 50, 0.016691, 65.8344, 264.691, 0.761414, 0.341644
"Med_NSS_2(1)", "00:00:00.194", 1, 272, 203.231, 169.335, 5.98122, 50, 0.119624, 141.079, 264.532, 3.75774, -4.65343
"Med_NSS_2(1)", "00:00:00.194", 1, 273, 203.365, 168.959, 0.399344, 50, 0.00798688, 160.329, 264.395, 0.13443, -0.376038
"Med_NSS_2(1)", "00:00:00.194", 1, 274, 203.242, 168.96, 0.123154, 50, 0.00246309, -89.8226, 264.3, -0.123154, 0.00038147
"Med_NSS_2(1)", "00:00:00.194", 1, 275, 205.706, 162.879, 6.56092, 50, 0.131218, 157.939, 262.383, 2.46423, -6.08057
"Med_NSS_2(1)", "00:00:00.194", 1, 276, 206.277, 163.037, 0.592358, 50, 0.0118472, 74.5727, 262.928, 0.571014, 0.157578
"Med_NSS_2(1)", "00:00:00.194", 1, 277, 204.724, 158.467, 4.82618, 50, 0.0965235, -161.227, 258.89, -1.55316, -4.56943
"Med_NSS_2(1)", "00:00:00.195", 1, 278, 205.109, 158.041, 0.574761, 50, 0.0114952, 137.936, 258.934, 0.385071, -0.426697
"Med_NSS_2(1)", "00:00:00.195", 1, 279, 205.179, 158.043, 0.0694052, 50, 0.0013881, 88.085, 258.99, 0.0693665, 0.00231934
"Med_NSS_2(1)", "00:00:00.195", 1, 280, 201.292, 155.33, 4.73937, 50, 0.0947875, -124.919, 254.256, -3.88609, -2.71292
"Med_NSS_2(1)", "00:00:00.195", 1, 281, 201.221, 155.025, 0.313512, 50, 0.00627024, -166.782, 254.013, -0.0716858, -0.305206
"Med_NSS_2(1)", "00:00:00.195", 1, 282, 201.221, 155.025, 0, 50, 0, 0, 254.013, 0, 0
"Med_NSS_2(1)", "00:00:00.196", 1, 283, 197.214, 152.711, 4.62664, 50, 0.0925327, -120.006, 249.428, -4.00656, -2.31371
"Med_NSS_2(1)", "00:00:00.196", 1, 284, 197.381, 153.066, 0.392458, 50, 0.00784915, 25.0965, 249.777, 0.166458, 0.355408
"Med_NSS_2(1)", "00:00:00.196", 1, 285, 193.642, 150.722, 4.41302, 50, 0.0882605, -122.098, 245.386, -3.73846, -2.34492
"Med_NSS_2(1)", "00:00:00.196", 1, 286, 193.206, 150.758, 0.438255, 50, 0.00876509, -85.1828, 245.064, -0.436707, 0.0368042
"Med_NSS_2(1)", "00:00:00.196", 1, 287, 193.188, 151.026, 0.268492, 50, 0.00536984, -3.71141, 245.215, -0.0173798, 0.267929
"Med_NSS_2(1)", "00:00:00.196", 1, 288, 188.382, 147.302, 6.0801, 50, 0.121602, -127.775, 239.135, -4.80583, -3.72446
"Med_NSS_2(1)", "00:00:00.196", 1, 289, 185.797, 145.783, 2.99871, 50, 0.0599742, -120.427, 236.163, -2.58572, -1.51865
"Med_NSS_2(1)", "00:00:00.197", 1, 290, 178.37, 136.982, 11.5158, 50, 0.230316, -139.844, 224.9, -7.42619, -8.80147
"Med_NSS_2(1)", "00:00:00.197", 1, 291, 175.925, 135.351, 2.93901, 50, 0.0587801, -123.705, 221.968, -2.44498, -1.63091
"Med_NSS_2(1)", "00:00:00.197", 1, 292, 175.888, 134.68, 0.671408, 50, 0.0134282, -176.782, 221.529, -0.0376892, -0.670349
"Med_NSS_2(1)", "00:00:00.197", 1, 293, 170.477, 126.349, 9.93411, 50, 0.198682, -146.998, 212.195, -5.41075, -8.33128
"Med_NSS_2(1)", "00:00:00.197", 1, 294, 170.442, 126.213, 0.140905, 50, 0.0028181, -165.77, 212.085, -0.0346375, -0.136581
"Med_NSS_2(1)", "00:00:00.198", 1, 295, 171.281, 126.651, 0.946163, 50, 0.0189233, 62.4271, 213.02, 0.838699, 0.437958
"Med_NSS_2(1)", "00:00:00.198", 1, 296, 167.312, 121.23, 6.71886, 50, 0.134377, -143.786, 206.615, -3.9695, -5.42091
"Med_NSS_2(1)", "00:00:00.198", 1, 297, 167.451, 121.254, 0.14148, 50, 0.0028296, 80.1009, 206.742, 0.139374, 0.0243225
"Med_NSS_2(1)", "00:00:00.198", 1, 298, 163.614, 115.761, 6.70007, 50, 0.134001, -145.063, 200.425, -3.83702, -5.49255
"Med_NSS_2(1)", "00:00:00.198", 1, 299, 163.826, 115.859, 0.233888, 50, 0.00467775, 65.321, 200.655, 0.212524, 0.0976563
"Med_NSS_2(1)", "00:00:00.198", 1, 300, 163.822, 115.859, 0.00452456, 50, 9.04912e-005, -95.8068, 200.651, -0.00450134, -0.000457764
"Med_NSS_2(1)", "00:00:00.199", 1, 301, 161.129, 108.886, 7.47421, 50, 0.149484, -158.884, 194.471, -2.69266, -6.97233
"Med_NSS_2(1)", "00:00:00.199", 1, 302, 161.981, 105.814, 3.18858, 50, 0.0637715, 164.509, 193.479, 0.851639, -3.07274
"Med_NSS_2(1)", "00:00:00.199", 1, 303, 167.252, 94.2941, 12.668, 50, 0.25336, 155.413, 192.001, 5.27087, -11.5194
"Med_NSS_2(1)", "00:00:00.199", 1, 304, 169.838, 89.8098, 5.17663, 50, 0.103533, 150.026, 192.122, 2.58626, -4.48428
"Med_NSS_2(1)", "00:00:00.199", 1, 305, 169.312, 90.4009, 0.791483, 50, 0.0158297, -41.6869, 191.934, -0.526382, 0.591072
"Med_NSS_2(1)", "00:00:00.199", 1, 306, 173.619, 84.2457, 7.51254, 50, 0.150251, 145.017, 192.979, 4.30721, -6.15517
"Med_NSS_2(1)", "00:00:00.200", 1, 307, 180.69, 68.0091, 17.7096, 50, 0.354192, 156.467, 193.065, 7.07117, -16.2366
"Med_NSS_2(1)", "00:00:00.200", 1, 308, 183.723, 60.108, 8.46343, 50, 0.169269, 158.997, 193.306, 3.03346, -7.90113
"Med_NSS_2(1)", "00:00:00.200", 1, 309, 183.91, 60.6323, 0.556443, 50, 0.0111289, 19.5651, 193.647, 0.18634, 0.524315
"Med_NSS_2(1)", "00:00:00.200", 1, 310, 184.052, 61.072, 0.462241, 50, 0.00924481, 17.934, 193.92, 0.142334, 0.439781
"Med_NSS_2(1)", "00:00:00.200", 1, 311, 183.676, 60.7281, 0.509479, 50, 0.0101896, -132.465, 193.455, -0.375839, -0.343967
"Med_NSS_2(1)", "00:00:00.201", 1, 312, 183.803, 61.3772, 0.661373, 50, 0.0132275, 11.0561, 193.78, 0.126831, 0.649097
"Med_NSS_2(1)", "00:00:00.201", 1, 313, 183.801, 61.3781, 0.00274829, 50, 5.49658e-005, -70.71, 193.778, -0.00259399, 0.000907898
"Med_NSS_2(1)", "00:00:00.201", 1, 314, 183.032, 62.0457, 1.0182, 50, 0.020364, -49.0304, 193.262, -0.768799, 0.667591
"Med_NSS_2(1)", "00:00:00.201", 1, 315, 182.737, 62.6125, 0.639011, 50, 0.0127802, -27.5028, 193.166, -0.29509, 0.566795
"Med_NSS_2(1)", "00:00:00.201", 1, 316, 181.729, 66.0062, 3.54021, 50, 0.0708042, -16.5377, 193.345, -1.00771, 3.39376
"Med_NSS_2(1)", "00:00:00.201", 1, 317, 181.908, 66.3418, 0.380249, 50, 0.00760498, 28.0541, 193.628, 0.178833, 0.335571
"Med_NSS_2(1)", "00:00:00.201", 1, 318, 181.912, 66.3427, 0.00457703, 50, 9.15407e-005, 78.559, 193.632, 0.00448608, 0.000907898
"Med_NSS_2(1)", "00:00:00.202", 1, 319, 179.354, 71.0572, 5.36394, 50, 0.107279, -28.4879, 192.917, -2.55846, 4.71446
"Med_NSS_2(1)", "00:00:00.202", 1, 320, 179.132, 70.6607, 0.454479, 50, 0.00908958, -150.74, 192.565, -0.222137, -0.396492
"Med_NSS_2(1)", "00:00:00.202", 1, 321, 175.636, 77.0125, 7.25041, 50, 0.145008, -28.8285, 191.778, -3.49606, 6.35184
"Med_NSS_2(1)", "00:00:00.202", 1, 322, 175.146, 77.9673, 1.07318, 50, 0.0214637, -27.1673, 191.716, -0.490005, 0.954788
"Med_NSS_2(1)", "00:00:00.202", 1, 323, 174.878, 77.5388, 0.505351, 50, 0.010107, -147.986, 191.297, -0.267899, -0.428497
"Med_NSS_2(1)", "00:00:00.202", 1, 324, 173.286, 85.9392, 8.54988, 50, 0.170998, -10.7305, 193.426, -1.5919, 8.40038
"Med_NSS_2(1)", "00:00:00.203", 1, 325, 172.424, 86.7218, 1.16383, 50, 0.0232765, -47.7441, 193.005, -0.861404, 0.782608
"Med_NSS_2(1)", "00:00:00.203", 1, 326, 172.185, 86.6259, 0.257929, 50, 0.00515859, -111.817, 192.748, -0.239456, -0.0958557
"Med_NSS_2(1)", "00:00:00.203", 1, 327, 172.298, 93.1592, 6.53422, 50, 0.130684, 0.993366, 195.871, 0.113281, 6.53323
"Med_NSS_2(1)", "00:00:00.203", 1, 328, 172.013, 93.1068, 0.289669, 50, 0.00579337, -100.414, 195.595, -0.284897, -0.0523605
"Med_NSS_2(1)", "00:00:00.203", 1, 329, 172.768, 98.7649, 5.70819, 50, 0.114164, 7.60123, 199.006, 0.755066, 5.65804
"Med_NSS_2(1)", "00:00:00.203", 1, 330, 172.845, 99.169, 0.411208, 50, 0.00822417, 10.6643, 199.273, 0.0760956, 0.404106
"Med_NSS_2(1)", "00:00:00.204", 1, 331, 172.858, 99.108, 0.0624165, 50, 0.00124833, 167.692, 199.254, 0.0133057, -0.0609818
"Med_NSS_2(1)", "00:00:00.204", 1, 332, 173.488, 104.289, 5.21927, 50, 0.104385, 6.93192, 202.421, 0.629913, 5.18112
"Med_NSS_2(1)", "00:00:00.204", 1, 333, 173.342, 103.308, 0.992101, 50, 0.019842, -171.577, 201.792, -0.145325, -0.9814
"Med_NSS_2(1)", "00:00:00.204", 1, 334, 173.752, 107.549, 4.26127, 50, 0.0852253, 5.5131, 204.344, 0.409393, 4.24155
"Med_NSS_2(1)", "00:00:00.204", 1, 335, 174.171, 107.643, 0.429691, 50, 0.00859382, 77.3531, 204.75, 0.419266, 0.0940781
"Med_NSS_2(1)", "00:00:00.204", 1, 336, 174.141, 107.725, 0.086938, 50, 0.00173876, -20.4643, 204.767, -0.0303955, 0.0814514
"Med_NSS_2(1)", "00:00:00.205", 1, 337, 175.835, 110.556, 3.29974, 50, 0.0659948, 30.8941, 207.703, 1.69426, 2.83157
"Med_NSS_2(1)", "00:00:00.205", 1, 338, 176.21, 110.721, 0.409219, 50, 0.00818437, 66.3121, 208.108, 0.374741, 0.164406
"Med_NSS_2(1)", "00:00:00.205", 1, 339, 176.212, 110.724, 0.00359208, 50, 7.18415e-005, 37.4054, 208.111, 0.00218201, 0.00285339
"Med_NSS_2(1)", "00:00:00.205", 1, 340, 180.448, 114.69, 5.80337, 50, 0.116067, 46.887, 213.812, 4.2365, 3.96626
"Med_NSS_2(1)", "00:00:00.205", 1, 341, 180.457, 115.419, 0.729027, 50, 0.0145805, 0.646394, 214.21, 0.00822449, 0.728981
"Med_NSS_2(1)", "00:00:00.206", 1, 342, 184.48, 121.28, 7.10966, 50, 0.142193, 34.4679, 220.776, 4.02367, 5.86152
"Med_NSS_2(1)", "00:00:00.206", 1, 343, 186.154, 123.437, 2.73, 50, 0.0545999, 37.8053, 223.361, 1.67343, 2.15697
"Med_NSS_2(1)", "00:00:00.206", 1, 344, 186.424, 123.763, 0.423276, 50, 0.00846553, 39.7744, 223.766, 0.270798, 0.325317
"Med_NSS_2(1)", "00:00:00.206", 1, 345, 190.43, 131.934, 9.10038, 50, 0.182008, 26.1145, 231.668, 4.00568, 8.17139
"Med_NSS_2(1)", "00:00:00.206", 1, 346, 191.149, 133.426, 1.65639, 50, 0.0331278, 25.7205, 233.111, 0.718842, 1.49228
"Med_NSS_2(1)", "00:00:00.206", 1, 347, 194.958, 142.108, 9.48066, 50, 0.189613, 23.6884, 241.254, 3.80898, 8.68185
"Med_NSS_2(1)", "00:00:00.206", 1, 348, 195.393, 142.622, 0.673587, 50, 0.0134717, 40.2626, 241.908, 0.435333, 0.514008
"Med_NSS_2(1)", "00:00:00.207", 1, 349, 194.837, 142.96, 0.651064, 50, 0.0130213, -58.7721, 241.658, -0.556732, 0.33754
"Med_NSS_2(1)", "00:00:00.207", 1, 350, 196.653, 150.455, 7.71166, 50, 0.154233, 13.62, 247.606, 1.81595, 7.4948
"Med_NSS_2(1)", "00:00:00.207", 1, 351, 196.662, 149.799, 0.655195, 50, 0.0131039, 179.137, 247.216, 0.00987244, -0.655121
"Med_NSS_2(1)", "00:00:00.207", 1, 352, 195.7, 151.679, 2.11138, 50, 0.0422276, -27.1036, 247.599, -0.961945, 1.87952
"Med_NSS_2(1)", "00:00:00.208", 1, 353, 195.487, 152.731, 1.07339, 50, 0.0214679, -11.4495, 248.077, -0.213074, 1.05203
"Med_NSS_2(1)", "00:00:00.208", 1, 354, 194.837, 153.314, 0.873417, 50, 0.0174683, -48.1577, 247.924, -0.650681, 0.582642
"Med_NSS_2(1)", "00:00:00.208", 1, 355, 189.05, 155.451, 6.16867, 50, 0.123373, -69.7269, 244.755, -5.78653, 2.13742
"Med_NSS_2(1)", "00:00:00.208", 1, 356, 187.499, 156.036, 1.65789, 50, 0.0331577, -69.3223, 243.933, -1.55109, 0.585419
"Med_NSS_2(1)", "00:00:00.208", 1, 357, 186.82, 156.193, 0.696587, 50, 0.0139317, -77.0198, 243.512, -0.678787, 0.156464
"Med_NSS_2(1)", "00:00:00.208", 1, 358, 181.742, 158.426, 5.54791, 50, 0.110958, -66.2591, 241.1, -5.07841, 2.2336
"Med_NSS_2(1)", "00:00:00.208", 1, 359, 179.946, 158.819, 1.8387, 50, 0.0367739, -77.6739, 240.008, -1.79631, 0.392517
"Med_NSS_2(1)", "00:00:00.208", 1, 360, 172.482, 160.878, 7.74252, 50, 0.15485, -74.575, 235.864, -7.46362, 2.05934
"Med_NSS_2(1)", "00:00:00.209", 1, 361, 164.685, 161.494, 7.82075, 50, 0.156415, -85.4845, 230.655, -7.79648, 0.615723
"Med_NSS_2(1)", "00:00:00.209", 1, 362, 159.275, 161.356, 5.41183, 50, 0.108237, -91.4647, 226.725, -5.41006, -0.138321
"Med_NSS_2(1)", "00:00:00.209", 1, 363, 150.893, 158.077, 9.00092, 50, 0.180018, -111.36, 218.534, -8.38266, -3.27834
"Med_NSS_2(1)", "00:00:00.209", 1, 364, 146.814, 158.144, 4.0792, 50, 0.081584, -89.0682, 215.787, -4.07866, 0.0663452
"Med_NSS_2(1)", "00:00:00.209", 1, 365, 141.091, 154.498, 6.78546, 50, 0.135709, -122.501, 209.228, -5.72272, -3.64595
"Med_NSS_2(1)", "00:00:00.210", 1, 366, 137.955, 153.922, 3.18919, 50, 0.0637839, -100.405, 206.696, -3.13675, -0.575989
"Med_NSS_2(1)", "00:00:00.210", 1, 367, 137.015, 153.734, 0.957916, 50, 0.0191583, -101.314, 205.93, -0.939301, -0.187927
"Med_NSS_2(1)", "00:00:00.210", 1, 368, 134.216, 150.897, 3.98561, 50, 0.0797121, -135.388, 201.95, -2.79909, -2.83728
"Med_NSS_2(1)", "00:00:00.210", 1, 369, 134.457, 150.786, 0.264635, 50, 0.00529271, 114.751, 202.027, 0.240326, -0.110794
"Med_NSS_2(1)", "00:00:00.210", 1, 370, 135.366, 150.819, 0.910122, 50, 0.0182024, 87.9084, 202.658, 0.909515, 0.0332184
"Med_NSS_2(1)", "00:00:00.211", 1, 371, 135.379, 139.35, 11.4694, 50, 0.229389, 179.933, 194.283, 0.0134277, -11.4694
"Med_NSS_2(1)", "00:00:00.211", 1, 372, 135.304, 138.59, 0.763378, 50, 0.0152676, -174.354, 193.686, -0.0751038, -0.759674
"Med_NSS_2(1)", "00:00:00.211", 1, 373, 140.296, 128.175, 11.5494, 50, 0.230988, 154.392, 190.031, 4.99173, -10.415
"Med_NSS_2(1)", "00:00:00.211", 1, 374, 140.199, 127.683, 0.501174, 50, 0.0100235, -168.828, 189.628, -0.0971069, -0.491676
"Med_NSS_2(1)", "00:00:00.211", 1, 375, 139.524, 128.677, 1.20142, 50, 0.0240283, -34.1981, 189.802, -0.675262, 0.99369
"Med_NSS_2(1)", "00:00:00.211", 1, 376, 142.998, 122.839, 6.7939, 50, 0.135878, 149.246, 188.514, 3.47409, -5.83848
"Med_NSS_2(1)", "00:00:00.211", 1, 377, 140.716, 114.441, 8.70178, 50, 0.174036, -164.796, 181.377, -2.28214, -8.39719
"Med_NSS_2(1)", "00:00:00.212", 1, 378, 138.993, 98.8166, 15.7194, 50, 0.314387, -173.708, 170.54, -1.72282, -15.6247
"Med_NSS_2(1)", "00:00:00.212", 1, 379, 137.552, 95.8536, 3.29502, 50, 0.0659004, -154.06, 167.655, -1.44135, -2.96305
"Med_NSS_2(1)", "00:00:00.212", 1, 380, 138.287, 96.4526, 0.948629, 50, 0.0189726, 50.8397, 168.601, 0.73555, 0.599052
"Med_NSS_2(1)", "00:00:00.212", 1, 381, 136.112, 90.2533, 6.56977, 50, 0.131395, -160.668, 163.316, -2.17488, -6.19933
"Med_NSS_2(1)", "00:00:00.212", 1, 382, 136.088, 90.2914, 0.0449144, 50, 0.000898288, -31.9353, 163.317, -0.0237579, 0.0381165
"Med_NSS_2(1)", "00:00:00.213", 1, 383, 136.091, 90.2933, 0.00286999, 50, 5.73998e-005, 49.9605, 163.32, 0.00219727, 0.00184631
"Med_NSS_2(1)", "00:00:00.213", 1, 384, 134.184, 84.9132, 5.70792, 50, 0.114158, -160.487, 158.794, -1.90662, -5.38007
"Med_NSS_2(1)", "00:00:00.213", 1, 385, 134.098, 85.6244, 0.716433, 50, 0.0143287, -6.92621, 159.103, -0.0863953, 0.711205
"Med_NSS_2(1)", "00:00:00.213", 1, 386, 132.371, 83.0545, 3.09623, 50, 0.0619247, -146.099, 156.269, -1.72696, -2.56988
"Med_NSS_2(1)", "00:00:00.213", 1, 387, 132.066, 83.5006, 0.540125, 50, 0.0108025, -34.3285, 156.249, -0.304596, 0.446045
"Med_NSS_2(1)", "00:00:00.213", 1, 388, 132.062, 84.2341, 0.733526, 50, 0.0146705, -0.346835, 156.639, -0.00444031, 0.733513
"Med_NSS_2(1)", "00:00:00.213", 1, 389, 130.466, 80.7925, 3.79358, 50, 0.0758717, -155.122, 153.456, -1.59593, -3.44155
"Med_NSS_2(1)", "00:00:00.213", 1, 390, 130.021, 81.0167, 0.498082, 50, 0.00996163, -63.2545, 153.196, -0.444794, 0.224152
"Med_NSS_2(1)", "00:00:00.214", 1, 391, 128.599, 77.6944, 3.61392, 50, 0.0722785, -156.825, 150.247, -1.42221, -3.32231
"Med_NSS_2(1)", "00:00:00.214", 1, 392, 127.984, 76.7578, 1.1205, 50, 0.0224099, -146.704, 149.237, -0.615112, -0.936562
"Med_NSS_2(1)", "00:00:00.214", 1, 393, 127.327, 76.2933, 0.804393, 50, 0.0160879, -125.276, 148.434, -0.656693, -0.464546
"Med_NSS_2(1)", "00:00:00.214", 1, 394, 122.196, 68.5254, 9.30967, 50, 0.186193, -146.552, 140.098, -5.13138, -7.76781
"Med_NSS_2(1)", "00:00:00.215", 1, 395, 120.707, 67.9735, 1.58782, 50, 0.0317564, -110.342, 138.53, -1.48879, -0.551971
"Med_NSS_2(1)", "00:00:00.215", 1, 396, 120.588, 67.9379, 0.12365, 50, 0.00247301, -106.743, 138.409, -0.118408, -0.0356216
"Med_NSS_2(1)", "00:00:00.215", 1, 397, 118.662, 64.7801, 3.69896, 50, 0.0739791, -148.616, 135.193, -1.92634, -3.15777
"Med_NSS_2(1)", "00:00:00.215", 1, 398, 118.99, 65.1069, 0.462944, 50, 0.00925889, 45.0915, 135.637, 0.327873, 0.326828
"Med_NSS_2(1)", "00:00:00.215", 1, 399, 118.262, 64.3608, 1.04243, 50, 0.0208486, -135.705, 134.641, -0.727989, -0.746117
"Med_NSS_2(1)", "00:00:00.215", 1, 400, 118.498, 64.5264, 0.288252, 50, 0.00576504, 54.9366, 134.927, 0.235939, 0.165596
"Med_NSS_2(1)", "00:00:00.216", 1, 401, 118.371, 65.2915, 0.77556, 50, 0.0155112, -9.42128, 135.184, -0.126953, 0.765099
"Med_NSS_2(1)", "00:00:00.216", 1, 402, 122.452, 70.4361, 6.56694, 50, 0.131339, 38.4265, 141.265, 4.08141, 5.14458
"Med_NSS_2(1)", "00:00:00.216", 1, 403, 121.243, 68.9033, 1.95211, 50, 0.0390423, -141.737, 139.455, -1.2089, -1.53275
"Med_NSS_2(1)", "00:00:00.216", 1, 404, 124.011, 74.804, 6.51755, 50, 0.130351, 25.1288, 144.825, 2.76771, 5.9007
"Med_NSS_2(1)", "00:00:00.216", 1, 405, 123.248, 74.4156, 0.856096, 50, 0.0171219, -116.982, 143.971, -0.762909, -0.38842
"Med_NSS_2(1)", "00:00:00.216", 1, 406, 122.595, 73.9733, 0.789184, 50, 0.0157837, -124.086, 143.183, -0.653603, -0.442284
"Med_NSS_2(1)", "00:00:00.216", 1, 407, 126.107, 82.4617, 9.18654, 50, 0.183731, 22.4819, 150.675, 3.51286, 8.48837
"Med_NSS_2(1)", "00:00:00.217", 1, 408, 127.077, 83.7094, 1.58039, 50, 0.0316078, 37.8594, 152.171, 0.969925, 1.24775
"Med_NSS_2(1)", "00:00:00.217", 1, 409, 132.766, 93.6438, 11.448, 50, 0.22896, 29.7988, 162.469, 5.68915, 9.93432
"Med_NSS_2(1)", "00:00:00.217", 1, 410, 136.165, 97.8843, 5.43431, 50, 0.108686, 38.71, 167.697, 3.3985, 4.24051
"Med_NSS_2(1)", "00:00:00.217", 1, 411, 137.064, 99.5627, 1.90392, 50, 0.0380783, 28.1695, 169.408, 0.898804, 1.67841
"Med_NSS_2(1)", "00:00:00.217", 1, 412, 143.092, 111.18, 13.0879, 50, 0.261758, 27.4252, 181.208, 6.02815, 11.617
"Med_NSS_2(1)", "00:00:00.218", 1, 413, 147.48, 115.598, 6.22741, 50, 0.124548, 44.8034, 187.386, 4.38831, 4.41853
"Med_NSS_2(1)", "00:00:00.218", 1, 414, 148.493, 117.697, 2.33092, 50, 0.0466185, 25.7614, 189.481, 1.01308, 2.09926
"Med_NSS_2(1)", "00:00:00.218", 1, 415, 154.113, 128.331, 12.027, 50, 0.240539, 27.8553, 200.548, 5.61948, 10.6334
"Med_NSS_2(1)", "00:00:00.218", 1, 416, 158.058, 131.766, 5.23165, 50, 0.104633, 48.954, 205.779, 3.94562, 3.43544
"Med_NSS_2(1)", "00:00:00.218", 1, 417, 163.668, 141.862, 11.5498, 50, 0.230995, 29.0601, 216.592, 5.61002, 10.0958
"Med_NSS_2(1)", "00:00:00.218", 1, 418, 166.417, 144.231, 3.62836, 50, 0.0725672, 49.2394, 220.221, 2.74828, 2.36896
"Med_NSS_2(1)", "00:00:00.218", 1, 419, 166.676, 144.638, 0.482764, 50, 0.00965527, 32.5187, 220.683, 0.259521, 0.407074
"Med_NSS_2(1)", "00:00:00.219", 1, 420, 172.289, 152.28, 9.48202, 50, 0.18964, 36.2977, 229.941, 5.61317, 7.64206
"Med_NSS_2(1)", "00:00:00.219", 1, 421, 177.924, 154.945, 6.23278, 50, 0.124656, 64.6831, 235.934, 5.63416, 2.6653
"Med_NSS_2(1)", "00:00:00.219", 1, 422, 186.739, 162.166, 11.3947, 50, 0.227894, 50.679, 247.324, 8.81503, 7.22043
"Med_NSS_2(1)", "00:00:00.219", 1, 423, 194.612, 164.137, 8.11685, 50, 0.162337, 75.944, 254.588, 7.87383, 1.97134
"Med_NSS_2(1)", "00:00:00.219", 1, 424, 199.007, 164.997, 4.47837, 50, 0.0895673, 78.9247, 258.511, 4.39496, 0.860291
"Med_NSS_2(1)", "00:00:00.220", 1, 425, 204.513, 167.368, 5.99367, 50, 0.119873, 66.7078, 264.267, 5.50519, 2.37003
"Med_NSS_2(1)", "00:00:00.220", 1, 426, 209.085, 167.89, 4.60222, 50, 0.0920445, 83.4825, 268.148, 4.57248, 0.522385
"Med_NSS_2(1)", "00:00:00.220", 1, 427, 211.816, 168.484, 2.79442, 50, 0.0558885, 77.7197, 270.652, 2.73048, 0.59436
"Med_NSS_2(1)", "00:00:00.220", 1, 428, 217.014, 169.692, 5.33665, 50, 0.106733, 76.9155, 275.482, 5.19809, 1.20816
"Med_NSS_2(1)", "00:00:00.220", 1, 429, 220.334, 170.603, 3.44314, 50, 0.0688627, 74.6647, 278.662, 3.32054, 0.910599
"Med_NSS_2(1)", "00:00:00.220", 1, 430, 225.966, 172.309, 5.88456, 50, 0.117691, 73.15, 284.167, 5.63191, 1.70575
"Med_NSS_2(1)", "00:00:00.221", 1, 431, 230.532, 172.767, 4.58847, 50, 0.0917695, 84.2688, 288.085, 4.56554, 0.458221
"Med_NSS_2(1)", "00:00:00.221", 1, 432, 232.993, 172.921, 2.4666, 50, 0.0493319, 86.4179, 290.151, 2.46178, 0.154114
"Med_NSS_2(1)", "00:00:00.221", 1, 433, 236.671, 173.817, 3.78488, 50, 0.0756977, 76.3079, 293.642, 3.67732, 0.895905
"Med_NSS_2(1)", "00:00:00.221", 1, 434, 239.327, 174.017, 2.66386, 50, 0.0532772, 85.6852, 295.905, 2.65631, 0.200424
"Med_NSS_2(1)", "00:00:00.221", 1, 435, 244.626, 174.715, 5.3443, 50, 0.106886, 82.5044, 300.611, 5.29863, 0.697174
"Med_NSS_2(1)", "00:00:00.221", 1, 436, 248.76, 174.982, 4.14325, 50, 0.082865, 86.3059, 304.139, 4.13464, 0.266953
"Med_NSS_2(1)", "00:00:00.222", 1, 437, 251.176, 174.982, 2.41603, 50, 0.0483206, 89.9852, 306.118, 2.41603, 0.00062561
"Med_NSS_2(1)", "00:00:00.222", 1, 438, 255.335, 175.19, 4.16369, 50, 0.0832737, 87.1378, 309.657, 4.15849, 0.207916
"Med_NSS_2(1)", "00:00:00.222", 1, 439, 257.912, 175.166, 2.5769, 50, 0.051538, 90.5422, 311.771, 2.57678, -0.0243835
"Med_NSS_2(1)", "00:00:00.222", 1, 440, 259.068, 175.173, 1.15646, 50, 0.0231291, 89.6342, 312.733, 1.15643, 0.00738525
"Med_NSS_2(1)", "00:00:00.222", 1, 441, 262.342, 174.944, 3.28173, 50, 0.0656347, 94.0071, 315.323, 3.27371, -0.229324
"Med_NSS_2(1)", "00:00:00.222", 1, 442, 264.667, 175.065, 2.32871, 50, 0.0465742, 87.0201, 317.327, 2.32556, 0.121063
"Med_NSS_2(1)", "00:00:00.223", 1, 443, 267.149, 173.125, 3.15049, 50, 0.0630099, 128.014, 318.341, 2.48215, -1.94025
"Med_NSS_2(1)", "00:00:00.223", 1, 444, 267.613, 173.332, 0.507834, 50, 0.0101567, 65.8563, 318.843, 0.463409, 0.207718
"Med_NSS_2(1)", "00:00:00.223", 1, 445, 267.51, 173.28, 0.115559, 50, 0.00231119, -116.964, 318.728, -0.102997, -0.0523987
"Med_NSS_2(1)", "00:00:00.223", 1, 446, 265.103, 170.94, 3.3567, 50, 0.0671339, -134.191, 315.436, -2.40683, -2.33978
"Med_NSS_2(1)", "00:00:00.223", 1, 447, 264.773, 170.875, 0.335959, 50, 0.00671919, -101.175, 315.124, -0.32959, -0.0651093
"Med_NSS_2(1)", "00:00:00.223", 1, 448, 262.817, 170.075, 2.11385, 50, 0.042277, -112.246, 313.047, -1.95651, -0.800262
"Med_NSS_2(1)", "00:00:00.224", 1, 449, 262.889, 169.906, 0.183866, 50, 0.00367733, 156.795, 313.016, 0.0724487, -0.168991
"Med_NSS_2(1)", "00:00:00.224", 1, 450, 262.885, 169.902, 0.00553507, 50, 0.000110701, -135.112, 313.01, -0.00390625, -0.00392151
"Med_NSS_2(1)", "00:00:00.224", 1, 451, 259.078, 167.297, 4.61331, 50, 0.0922661, -124.374, 308.399, -3.80768, -2.60464
"Med_NSS_2(1)", "00:00:00.224", 1, 452, 258.895, 167.018, 0.333432, 50, 0.00666864, -146.791, 308.094, -0.182617, -0.278976
"Med_NSS_2(1)", "00:00:00.224", 1, 453, 258.896, 167.02, 0.00159306, 50, 3.18613e-005, 16.6993, 308.095, 0.000457764, 0.00152588
"Med_NSS_2(1)", "00:00:00.225", 1, 454, 252.563, 163.322, 7.33367, 50, 0.146673, -120.284, 300.769, -6.3329, -3.69826
"Med_NSS_2(1)", "00:00:00.225", 1, 455, 249.437, 161.063, 3.85632, 50, 0.0771264, -125.844, 296.918, -3.12599, -2.25818
"Med_NSS_2(1)", "00:00:00.225", 1, 456, 238.777, 149.549, 15.691, 50, 0.31382, -137.206, 281.743, -10.6599, -11.5141
"Med_NSS_2(1)", "00:00:00.225", 1, 457, 236.974, 143.073, 6.72205, 50, 0.134441, -164.446, 276.816, -1.80249, -6.47588
"Med_NSS_2(1)", "00:00:00.225", 1, 458, 237.179, 141.033, 2.05012, 50, 0.0410025, 174.276, 275.942, 0.204483, -2.0399
"Med_NSS_2(1)", "00:00:00.225", 1, 459, 237.735, 129.861, 11.1862, 50, 0.223724, 177.15, 270.891, 0.556152, -11.1724
"Med_NSS_2(1)", "00:00:00.225", 1, 460, 239.765, 126.512, 3.91625, 50, 0.078325, 148.787, 271.095, 2.0295, -3.34935
"Med_NSS_2(1)", "00:00:00.226", 1, 461, 245.431, 114.488, 13.2915, 50, 0.26583, 154.767, 270.821, 5.66618, -12.0232
"Med_NSS_2(1)", "00:00:00.226", 1, 462, 246.361, 111.665, 2.97288, 50, 0.0594575, 161.768, 270.486, 0.93013, -2.82362
"Med_NSS_2(1)", "00:00:00.226", 1, 463, 245.371, 112.741, 1.46239, 50, 0.0292478, -42.5902, 270.033, -0.98967, 1.07663
"Med_NSS_2(1)", "00:00:00.226", 1, 464, 248.55, 103.985, 9.31539, 50, 0.186308, 160.047, 269.425, 3.17894, -8.75619
"Med_NSS_2(1)", "00:00:00.226", 1, 465, 249.676, 103.032, 1.47499, 50, 0.0294998, 130.26, 270.099, 1.1256, -0.953224
"Med_NSS_2(1)", "00:00:00.227", 1, 466, 253.544, 96.6344, 7.47619, 50, 0.149524, 148.842, 271.335, 3.86823, -6.39767
"Med_NSS_2(1)", "00:00:00.227", 1, 467, 253.32, 97.604, 0.99521, 50, 0.0199042, -13.0173, 271.473, -0.224167, 0.969635
"Med_NSS_2(1)", "00:00:00.227", 1, 468, 252.869, 98.154, 0.71118, 50, 0.0142236, -39.3389, 271.251, -0.450821, 0.550034
"Med_NSS_2(1)", "00:00:00.227", 1, 469, 254.966, 95.569, 3.32865, 50, 0.066573, 140.952, 272.289, 2.09697, -2.58508
"Med_NSS_2(1)", "00:00:00.227", 1, 470, 255.744, 95.8554, 0.829226, 50, 0.0165845, 69.7921, 273.118, 0.778183, 0.286438
"Med_NSS_2(1)", "00:00:00.227", 1, 471, 256.436, 95.992, 0.705211, 50, 0.0141042, 78.8353, 273.814, 0.691864, 0.136551
"Med_NSS_2(1)", "00:00:00.228", 1, 472, 257.488, 94.7344, 1.63968, 50, 0.0327937, 140.08, 274.362, 1.05222, -1.25754
"Med_NSS_2(1)", "00:00:00.228", 1, 473, 259.964, 95.6254, 2.63128, 50, 0.0526257, 70.2069, 276.994, 2.47583, 0.891022
"Med_NSS_2(1)", "00:00:00.228", 1, 474, 264.503, 98.2664, 5.25166, 50, 0.105033, 59.8093, 282.167, 4.53931, 2.64096
"Med_NSS_2(1)", "00:00:00.228", 1, 475, 266.794, 98.8288, 2.35921, 50, 0.0471841, 76.2095, 284.511, 2.2912, 0.56237
"Med_NSS_2(1)", "00:00:00.228", 1, 476, 267.087, 98.9901, 0.334404, 50, 0.00668807, 61.1638, 284.842, 0.292938, 0.161285
"Med_NSS_2(1)", "00:00:00.228", 1, 477, 268.936, 103.621, 4.98622, 50, 0.0997244, 21.7557, 288.208, 1.84814, 4.63107
"Med_NSS_2(1)", "00:00:00.229", 1, 478, 268.805, 103.782, 0.20721, 50, 0.00414419, -39.2068, 288.143, -0.130981, 0.160561
"Med_NSS_2(1)", "00:00:00.229", 1, 479, 271.206, 110.568, 7.19822, 50, 0.143964, 19.4865, 292.878, 2.40121, 6.7859
"Med_NSS_2(1)", "00:00:00.229", 1, 480, 270.569, 110.338, 0.677174, 50, 0.0135435, -109.821, 292.202, -0.637054, -0.229622
"Med_NSS_2(1)", "00:00:00.229", 1, 481, 270.754, 109.718, 0.647449, 50, 0.012949, 163.361, 292.14, 0.185394, -0.620338
"Med_NSS_2(1)", "00:00:00.229", 1, 482, 271.282, 117.087, 7.38866, 50, 0.147773, 4.09517, 295.471, 0.527649, 7.3698
"Med_NSS_2(1)", "00:00:00.229", 1, 483, 271.324, 117.589, 0.503608, 50, 0.0100722, 4.75168, 295.709, 0.0417175, 0.501877
"Med_NSS_2(1)", "00:00:00.230", 1, 484, 271.106, 117.592, 0.217456, 50, 0.00434913, -89.2502, 295.51, -0.217438, 0.00284576
"Med_NSS_2(1)", "00:00:00.230", 1, 485, 268.005, 124.85, 7.89222, 50, 0.157844, -23.1359, 295.659, -3.10095, 7.2575
"Med_NSS_2(1)", "00:00:00.230", 1, 486, 268.114, 125.062, 0.238357, 50, 0.00476713, 27.2483, 295.847, 0.109131, 0.211906
"Med_NSS_2(1)", "00:00:00.230", 1, 487, 260.87, 130.581, 9.10698, 50, 0.18214, -52.6978, 291.727, -7.24414, 5.51901
"Med_NSS_2(1)", "00:00:00.230", 1, 488, 259.357, 132.667, 2.57774, 50, 0.0515547, -35.9509, 291.319, -1.51337, 2.08673
"Med_NSS_2(1)", "00:00:00.230", 1, 489, 260.083, 132.258, 0.833075, 50, 0.0166615, 119.398, 291.779, 0.7258, -0.408936
"Med_NSS_2(1)", "00:00:00.230", 1, 490, 254.316, 138.349, 8.38739, 50, 0.167748, -43.4365, 289.511, -5.76675, 6.09039
"Med_NSS_2(1)", "00:00:00.231", 1, 491, 252.612, 140.621, 2.84031, 50, 0.0568062, -36.8582, 289.115, -1.70372, 2.2726
"Med_NSS_2(1)", "00:00:00.231", 1, 492, 248.136, 149.79, 10.2025, 50, 0.20405, -26.021, 289.842, -4.47585, 9.1683
"Med_NSS_2(1)", "00:00:00.231", 1, 493, 247.465, 151.818, 2.13664, 50, 0.0427327, -18.318, 290.323, -0.671524, 2.02837
"Med_NSS_2(1)", "00:00:00.231", 1, 494, 246.989, 151.917, 0.485931, 50, 0.00971863, -78.2706, 289.969, -0.475784, 0.0987854
"Med_NSS_2(1)", "00:00:00.231", 1, 495, 245.416, 158.684, 6.9476, 50, 0.138952, -13.0815, 292.25, -1.57249, 6.7673
"Med_NSS_2(1)", "00:00:00.232", 1, 496, 244.888, 160.054, 1.46828, 50, 0.0293656, -21.081, 292.554, -0.528122, 1.37001
"Med_NSS_2(1)", "00:00:00.232", 1, 497, 245.159, 160.376, 0.420627, 50, 0.00841255, 40.1162, 292.956, 0.271027, 0.321671
"Med_NSS_2(1)", "00:00:00.232", 1, 498, 243.058, 163.129, 3.46351, 50, 0.0692702, -37.3476, 292.726, -2.10114, 2.75339
"Med_NSS_2(1)", "00:00:00.232", 1, 499, 244.509, 163.927, 1.65581, 50, 0.0331162, 61.2137, 294.375, 1.45119, 0.797348
"Med_NSS_2(1)", "00:00:00.232", 1, 500, 252.079, 166.306, 7.93465, 50, 0.158693, 72.5508, 301.996, 7.56952, 2.37929
"Med_NSS_2(1)", "00:00:00.233", 1, 501, 257.229, 167.382, 5.26158, 50, 0.105232, 78.2009, 306.893, 5.15041, 1.0759
"Med_NSS_2(1)", "00:00:00.233", 1, 502, 259.166, 167.401, 1.93678, 50, 0.0387355, 89.4173, 308.529, 1.93668, 0.0196991
"Med_NSS_2(1)", "00:00:00.233", 1, 503, 265.718, 165.972, 6.70647, 50, 0.134129, 102.305, 313.294, 6.5524, -1.42928
"Med_NSS_2(1)", "00:00:00.233", 1, 504, 268.523, 166.497, 2.85375, 50, 0.0570749, 79.4007, 315.953, 2.80505, 0.524918
"Med_NSS_2(1)", "00:00:00.233", 1, 505, 274.372, 165.037, 6.02786, 50, 0.120557, 104.013, 320.183, 5.84848, -1.45956
"Med_NSS_2(1)", "00:00:00.233", 1, 506, 274.522, 165.141, 0.182846, 50, 0.00365691, 55.4201, 320.366, 0.150543, 0.103775
"Med_NSS_2(1)", "00:00:00.233", 1, 507, 275.005, 165.001, 0.502522, 50, 0.0100504, 106.16, 320.707, 0.482666, -0.139862
"Med_NSS_2(1)", "00:00:00.234", 1, 508, 278.78, 164.54, 3.80292, 50, 0.0760585, 96.9711, 323.715, 3.77481, -0.461548
"Med_NSS_2(1)", "00:00:00.234", 1, 509, 279.284, 165.13, 0.776231, 50, 0.0155246, 40.4821, 324.45, 0.503937, 0.590408
"Med_NSS_2(1)", "00:00:00.234", 1, 510, 279.29, 165.134, 0.00713141, 50, 0.000142628, 58.3845, 324.457, 0.006073, 0.0037384
"Med_NSS_2(1)", "00:00:00.234", 1, 511, 280.998, 166.164, 1.99409, 50, 0.0398817, 58.9113, 326.451, 1.70767, 1.02968
"Med_NSS_2(1)", "00:00:00.234", 1, 512, 281.127, 166.037, 0.180733, 50, 0.00361467, 134.473, 326.497, 0.128967, -0.126617
"Med_NSS_2(1)", "00:00:00.234", 1, 513, 278.357, 165.789, 2.78039, 50, 0.0556077, -95.114, 323.989, -2.76932, -0.247833
"Med_NSS_2(1)", "00:00:00.235", 1, 514, 277.824, 165.831, 0.535012, 50, 0.0107002, -85.5738, 323.552, -0.533417, 0.0412903
"Med_NSS_2(1)", "00:00:00.235", 1, 515, 277.776, 165.786, 0.0649636, 50, 0.00129927, -132.678, 323.488, -0.04776, -0.0440369
"Med_NSS_2(1)", "00:00:00.235", 1, 516, 269.242, 157.302, 12.0336, 50, 0.240673, -134.832, 311.826, -8.53397, -8.48409
"Med_NSS_2(1)", "00:00:00.235", 1, 517, 268.252, 156.443, 1.31141, 50, 0.0262282, -130.961, 310.537, -0.990326, -0.85968
"Med_NSS_2(1)", "00:00:00.235", 1, 518, 261.012, 143.842, 14.532, 50, 0.29064, -150.122, 298.024, -7.23932, -12.6005
"Med_NSS_2(1)", "00:00:00.235", 1, 519, 261.289, 140.639, 3.21554, 50, 0.0643108, 175.07, 296.734, 0.276337, -3.20364
"Med_NSS_2(1)", "00:00:00.235", 1, 520, 261.56, 139.776, 0.903964, 50, 0.0180793, 162.525, 296.566, 0.271454, -0.862244
"Med_NSS_2(1)", "00:00:00.236", 1, 521, 263.3, 129.857, 10.0703, 50, 0.201405, 170.053, 293.581, 1.73956, -9.91888
"Med_NSS_2(1)", "00:00:00.236", 1, 522, 266.605, 122.822, 7.77337, 50, 0.155467, 154.838, 293.536, 3.30505, -7.03576
"Med_NSS_2(1)", "00:00:00.236", 1, 523, 270.322, 108.289, 15.0004, 50, 0.300007, 165.652, 291.206, 3.71735, -14.5325
"Med_NSS_2(1)", "00:00:00.236", 1, 524, 271.542, 105.935, 2.65164, 50, 0.0530327, 152.606, 291.475, 1.22003, -2.35429
"Med_NSS_2(1)", "00:00:00.236", 1, 525, 271.377, 106.946, 1.02423, 50, 0.0204846, -9.2745, 291.69, -0.16507, 1.01084
"Med_NSS_2(1)", "00:00:00.237", 1, 526, 272.377, 103.723, 3.37478, 50, 0.0674956, 162.76, 291.458, 1.00021, -3.22315
"Med_NSS_2(1)", "00:00:00.237", 1, 527, 271.448, 104.671, 1.32828, 50, 0.0265656, -44.4297, 290.929, -0.92984, 0.94854
"Med_NSS_2(1)", "00:00:00.237", 1, 528, 270.637, 105.4, 1.08997, 50, 0.0217993, -48.062, 290.436, -0.810791, 0.728455
"Med_NSS_2(1)", "00:00:00.237", 1, 529, 272.331, 103.158, 2.80957, 50, 0.0561914, 142.912, 291.214, 1.69427, -2.24123
"Med_NSS_2(1)", "00:00:00.237", 1, 530, 272.554, 101.533, 1.6404, 50, 0.032808, 172.186, 290.852, 0.223022, -1.62517
"Med_NSS_2(1)", "00:00:00.238", 1, 531, 272.407, 101.065, 0.491136, 50, 0.00982272, -162.599, 290.551, -0.146881, -0.468658
"Med_NSS_2(1)", "00:00:00.238", 1, 532, 268.272, 96.8717, 5.88877, 50, 0.117775, -135.399, 285.226, -4.13492, -4.19286
"Med_NSS_2(1)", "00:00:00.238", 1, 533, 264.724, 93.9915, 4.57027, 50, 0.0914053, -129.065, 280.915, -3.54849, -2.8802
"Med_NSS_2(1)", "00:00:00.238", 1, 534, 254.785, 85.5101, 13.0657, 50, 0.261315, -130.477, 268.752, -9.93874, -8.48145
"Med_NSS_2(1)", "00:00:00.238", 1, 535, 251.103, 82.6186, 4.68173, 50, 0.0936347, -128.142, 264.345, -3.6821, -2.8915
"Med_NSS_2(1)", "00:00:00.238", 1, 536, 244.12, 76.2004, 9.48447, 50, 0.189689, -132.587, 255.736, -6.98294, -6.41823
"Med_NSS_2(1)", "00:00:00.238", 1, 537, 243.636, 75.8748, 0.583398, 50, 0.011668, -123.914, 255.177, -0.484146, -0.325508
"Med_NSS_2(1)", "00:00:00.239", 1, 538, 244.546, 76.4914, 1.09936, 50, 0.0219872, 55.8848, 256.23, 0.910172, 0.616585
"Med_NSS_2(1)", "00:00:00.239", 1, 539, 241.292, 73.4002, 4.4884, 50, 0.089768, -133.529, 252.209, -3.25423, -3.09124
"Med_NSS_2(1)", "00:00:00.239", 1, 540, 241.186, 73.3076, 0.140599, 50, 0.00281197, -131.181, 252.081, -0.10582, -0.0925751
"Med_NSS_2(1)", "00:00:00.239", 1, 541, 241.187, 73.3072, 0.000872724, 50, 1.74545e-005, 121.05, 252.081, 0.000747681, -0.000450134
"Med_NSS_2(1)", "00:00:00.239", 1, 542, 237.895, 72.8917, 3.31799, 50, 0.0663598, -97.194, 248.811, -3.29187, -0.415504
"Med_NSS_2(1)", "00:00:00.240", 1, 543, 238.13, 73.2643, 0.440623, 50, 0.00881245, 32.2641, 249.146, 0.235214, 0.372589
"Med_NSS_2(1)", "00:00:00.240", 1, 544, 236.3, 74.3102, 2.10797, 50, 0.0421594, -60.2526, 247.709, -1.83018, 1.04593
"Med_NSS_2(1)", "00:00:00.240", 1, 545, 236.135, 74.2629, 0.171967, 50, 0.00343934, -105.953, 247.537, -0.165344, -0.0472641
"Med_NSS_2(1)", "00:00:00.240", 1, 546, 236.118, 74.1837, 0.0808186, 50, 0.00161637, -168.544, 247.498, -0.0160522, -0.0792084
"Med_NSS_2(1)", "00:00:00.240", 1, 547, 236.82, 75.5901, 1.57151, 50, 0.0314303, 26.5018, 248.591, 0.701248, 1.40638
"Med_NSS_2(1)", "00:00:00.240", 1, 548, 237.086, 76.2508, 0.712476, 50, 0.0142495, 21.965, 249.046, 0.266495, 0.660759
"Med_NSS_2(1)", "00:00:00.240", 1, 549, 239.923, 80.8645, 5.41609, 50, 0.108322, 31.5879, 253.184, 2.83698, 4.61363
"Med_NSS_2(1)", "00:00:00.241", 1, 550, 238.566, 79.4336, 1.97241, 50, 0.0394482, -136.505, 251.442, -1.35759, -1.43085
"Med_NSS_2(1)", "00:00:00.241", 1, 551, 238.147, 78.1882, 1.31378, 50, 0.0262756, -161.432, 250.654, -0.41835, -1.24539
"Med_NSS_2(1)", "00:00:00.241", 1, 552, 241.551, 84.7736, 7.41312, 50, 0.148262, 27.3346, 255.995, 3.40399, 6.58537
"Med_NSS_2(1)", "00:00:00.241", 1, 553, 242.951, 86.0373, 1.88594, 50, 0.0377187, 47.9285, 257.736, 1.39995, 1.26369
"Med_NSS_2(1)", "00:00:00.241", 1, 554, 242.95, 86.1147, 0.0774675, 50, 0.00154935, -1.08348, 257.76, -0.00146484, 0.0774536
"Med_NSS_2(1)", "00:00:00.242", 1, 555, 248.844, 95.7223, 11.2717, 50, 0.225434, 31.5304, 266.62, 5.89455, 9.60759
"Med_NSS_2(1)", "00:00:00.242", 1, 556, 253.036, 99.9502, 5.95372, 50, 0.119074, 44.7547, 272.061, 4.19185, 4.22791
"Med_NSS_2(1)", "00:00:00.242", 1, 557, 260.886, 112.927, 15.1663, 50, 0.303326, 31.1694, 284.278, 7.84962, 12.9769
"Med_NSS_2(1)", "00:00:00.242", 1, 558, 265.308, 117.139, 6.10686, 50, 0.122137, 46.3981, 290.017, 4.42227, 4.21156
"Med_NSS_2(1)", "00:00:00.242", 1, 559, 265.657, 117.834, 0.777978, 50, 0.0155596, 26.6689, 290.618, 0.349182, 0.695213
"Med_NSS_2(1)", "00:00:00.242", 1, 560, 270.074, 127.182, 10.3389, 50, 0.206778, 25.2923, 298.522, 4.41714, 9.34779
"Med_NSS_2(1)", "00:00:00.243", 1, 561, 271.864, 129.208, 2.70322, 50, 0.0540644, 41.4618, 301.006, 1.78986, 2.02579
"Med_NSS_2(1)", "00:00:00.243", 1, 562, 277.015, 139.589, 11.5888, 50, 0.231776, 26.3909, 310.197, 5.15112, 10.381
"Med_NSS_2(1)", "00:00:00.243", 1, 563, 279.938, 143.04, 4.52237, 50, 0.0904475, 40.2523, 314.365, 2.92215, 3.45151
"Med_NSS_2(1)", "00:00:00.243", 1, 564, 280.888, 143.899, 1.2813, 50, 0.025626, 47.9135, 315.603, 0.950897, 0.858795
"Med_NSS_2(1)", "00:00:00.243", 1, 565, 286.996, 152.104, 10.2287, 50, 0.204574, 36.6631, 324.811, 6.10764, 8.20505
"Med_NSS_2(1)", "00:00:00.243", 1, 566, 286.919, 152.292, 0.203091, 50, 0.00406183, -22.1675, 324.832, -0.0766296, 0.18808
"Med_NSS_2(1)", "00:00:00.244", 1, 567, 286.92, 152.288, 0.00401167, 50, 8.02334e-005, 165.911, 324.831, 0.000976563, -0.00389099
"Med_NSS_2(1)", "00:00:00.244", 1, 568, 279.001, 160.808, 11.6321, 50, 0.232642, -42.9069, 322.026, -7.91925, 8.52008
"Med_NSS_2(1)", "00:00:00.244", 1, 569, 278.68, 161.981, 1.21547, 50, 0.0243095, -15.2975, 322.336, -0.320679, 1.17241
"Med_NSS_2(1)", "00:00:00.244", 1, 570, 275.456, 164.481, 4.08018, 50, 0.0816035, -52.2091, 320.827, -3.22437, 2.50026
"Med_NSS_2(1)", "00:00:00.244", 1, 571, 275.065, 163.819, 0.768724, 50, 0.0153745, -149.401, 320.152, -0.391296, -0.661682
"Med_NSS_2(1)", "00:00:00.245", 1, 572, 275.098, 163.823, 0.0328977, 50, 0.000657954, 83.9563, 320.182, 0.0327148, 0.00346375
"Med_NSS_2(1)", "00:00:00.245", 1, 573, 272.047, 164.551, 3.13667, 50, 0.0627335, -76.5752, 317.941, -3.05096, 0.728241
"Med_NSS_2(1)", "00:00:00.245", 1, 574, 272.026, 164.763, 0.213009, 50, 0.00426019, -5.64852, 318.033, -0.0209656, 0.211975
"Med_NSS_2(1)", "00:00:00.245", 1, 575, 270.615, 164.847, 1.41301, 50, 0.0282602, -86.5982, 316.871, -1.41052, 0.083847
"Med_NSS_2(1)", "00:00:00.245", 1, 576, 271.068, 164.628, 0.502542, 50, 0.0100508, 115.775, 317.144, 0.452545, -0.218521
"Med_NSS_2(1)", "00:00:00.245", 1, 577, 271.049, 164.558, 0.0722006, 50, 0.00144401, -164.883, 317.091, -0.0188293, -0.0697021
"Med_NSS_2(1)", "00:00:00.245", 1, 578, 267.318, 164.888, 3.74564, 50, 0.0749127, -84.9524, 314.081, -3.73111, 0.329559
"Med_NSS_2(1)", "00:00:00.245", 1, 579, 266.209, 165.31, 1.18587, 50, 0.0237173, -69.1715, 313.36, -1.10837, 0.421661
"Med_NSS_2(1)", "00:00:00.246", 1, 580, 259.703, 165.49, 6.5089, 50, 0.130178, -88.4152, 307.949, -6.50641, 0.180023
"Med_NSS_2(1)", "00:00:00.246", 1, 581, 256.448, 166.002, 3.29457, 50, 0.0658915, -81.0461, 305.488, -3.25443, 0.512772
"Med_NSS_2(1)", "00:00:00.246", 1, 582, 255.659, 166.188, 0.811268, 50, 0.0162254, -76.8164, 304.926, -0.789886, 0.185028
"Med_NSS_2(1)", "00:00:00.246", 1, 583, 256.462, 165.989, 0.827781, 50, 0.0165556, 103.851, 305.492, 0.803711, -0.198166
"Med_NSS_2(1)", "00:00:00.246", 1, 584, 257.167, 165.834, 0.721231, 50, 0.0144246, 102.467, 305.999, 0.704224, -0.155701
"Med_NSS_2(1)", "00:00:00.247", 1, 585, 257.981, 165.798, 0.8151, 50, 0.016302, 92.5386, 306.664, 0.814301, -0.0361023
"Med_NSS_2(1)", "00:00:00.247", 1, 586, 254.434, 163.97, 3.98937, 50, 0.0797873, -117.257, 302.693, -3.5464, -1.82704
"Med_NSS_2(1)", "00:00:00.247", 1, 587, 253.195, 163.732, 1.26213, 50, 0.0252426, -100.906, 301.522, -1.23933, -0.2388
"Med_NSS_2(1)", "00:00:00.247", 1, 588, 244.857, 155.762, 11.5346, 50, 0.230691, -133.708, 290.201, -8.33803, -7.97015
"Med_NSS_2(1)", "00:00:00.247", 1, 589, 241.248, 153.873, 4.0734, 50, 0.081468, -117.618, 286.142, -3.60928, -1.88829
"Med_NSS_2(1)", "00:00:00.247", 1, 590, 240.655, 153.813, 0.59613, 50, 0.0119226, -95.8, 285.61, -0.593079, -0.0602417
"Med_NSS_2(1)", "00:00:00.248", 1, 591, 236.838, 149.25, 5.94856, 50, 0.118971, -140.087, 279.943, -3.81674, -4.56265
"Med_NSS_2(1)", "00:00:00.248", 1, 592, 235.943, 148.542, 1.14113, 50, 0.0228226, -128.361, 278.808, -0.894775, -0.708206
"Med_NSS_2(1)", "00:00:00.248", 1, 593, 233.55, 138.5, 10.323, 50, 0.20646, -166.598, 271.529, -2.39272, -10.0419
"Med_NSS_2(1)", "00:00:00.248", 1, 594, 235.115, 133.596, 5.14765, 50, 0.102953, 162.311, 270.42, 1.56413, -4.90427
"Med_NSS_2(1)", "00:00:00.248", 1, 595, 234.47, 133.172, 0.771756, 50, 0.0154351, -123.369, 269.65, -0.644531, -0.424484
"Med_NSS_2(1)", "00:00:00.248", 1, 596, 234.691, 123.091, 10.0828, 50, 0.201655, 178.744, 265.012, 0.221069, -10.0803
"Med_NSS_2(1)", "00:00:00.249", 1, 597, 236.799, 119.591, 4.0862, 50, 0.0817241, 148.947, 265.284, 2.1078, -3.5006
"Med_NSS_2(1)", "00:00:00.249", 1, 598, 236.486, 119.874, 0.422008, 50, 0.00844016, -47.8086, 265.133, -0.312668, 0.283424
"Med_NSS_2(1)", "00:00:00.249", 1, 599, 239.116, 110.589, 9.65026, 50, 0.193005, 164.186, 263.451, 2.62985, -9.28501
"Med_NSS_2(1)", "00:00:00.249", 1, 600, 240.568, 108.251, 2.75205, 50, 0.055041, 148.159, 263.802, 1.45187, -2.33791
"Med_NSS_2(1)", "00:00:00.249", 1, 601, 242.673, 102.354, 6.26162, 50, 0.125232, 160.355, 263.375, 2.10516, -5.89713
"Med_NSS_2(1)", "00:00:00.250", 1, 602, 242.605, 102.388, 0.0762145, 50, 0.00152429, -63.0913, 263.326, -0.0679626, 0.0344925
"Med_NSS_2(1)", "00:00:00.250", 1, 603, 242.602, 102.389, 0.00290001, 50, 5.80003e-005, -83.9595, 263.324, -0.00288391, 0.000305176
"Med_NSS_2(1)", "00:00:00.250", 1, 604, 243.848, 98.3812, 4.19681, 50, 0.0839362, 162.728, 262.947, 1.24609, -4.00755
"Med_NSS_2(1)", "00:00:00.250", 1, 605, 243.489, 98.5689, 0.405051, 50, 0.00810101, -62.3925, 262.684, -0.358932, 0.187706
"Med_NSS_2(1)", "00:00:00.250", 1, 606, 244.062, 95.7797, 2.84741, 50, 0.0569481, 168.391, 262.184, 0.573013, -2.78915
"Med_NSS_2(1)", "00:00:00.250", 1, 607, 244.444, 95.2762, 0.631884, 50, 0.0126377, 142.832, 262.356, 0.38176, -0.503525
"Med_NSS_2(1)", "00:00:00.250", 1, 608, 244.129, 94.8891, 0.499035, 50, 0.0099807, -140.864, 261.922, -0.314972, -0.387077
"Med_NSS_2(1)", "00:00:00.251", 1, 609, 244.001, 93.261, 1.63323, 50, 0.0326646, -175.487, 261.216, -0.12851, -1.62817
"Med_NSS_2(1)", "00:00:00.251", 1, 610, 243.846, 93.269, 0.154751, 50, 0.00309503, -87.013, 261.075, -0.154541, 0.00806427
"Med_NSS_2(1)", "00:00:00.251", 1, 611, 243.844, 93.2694, 0.0018305, 50, 3.661e-005, -77.2381, 261.073, -0.00178528, 0.000404358
"Med_NSS_2(1)", "00:00:00.251", 1, 612, 243.847, 92.0957, 1.17371, 50, 0.0234742, 179.897, 260.658, 0.00210571, -1.17371
"Med_NSS_2(1)", "00:00:00.251", 1, 613, 243.926, 92.0852, 0.0801178, 50, 0.00160236, 97.5569, 260.729, 0.079422, -0.0105362
"Med_NSS_2(1)", "00:00:00.252", 1, 614, 241.818, 87.831, 4.74777, 50, 0.0949553, -153.644, 257.275, -2.1078, -4.25423
"Med_NSS_2(1)", "00:00:00.252", 1, 615, 238.976, 84.4527, 4.41466, 50, 0.0882931, -139.929, 253.46, -2.8419, -3.37828
"Med_NSS_2(1)", "00:00:00.252", 1, 616, 237.766, 82.4906, 2.30524, 50, 0.0461047, -148.336, 251.669, -1.21011, -1.96207
"Med_NSS_2(1)", "00:00:00.252", 1, 617, 231.338, 71.9038, 12.3856, 50, 0.247712, -148.734, 242.255, -6.42834, -10.5868
"Med_NSS_2(1)", "00:00:00.252", 1, 618, 228.676, 67.675, 4.99694, 50, 0.0999388, -147.811, 238.48, -2.66196, -4.22887
"Med_NSS_2(1)", "00:00:00.252", 1, 619, 224.27, 58.9505, 9.77402, 50, 0.19548, -153.204, 231.888, -4.40631, -8.72444
"Med_NSS_2(1)", "00:00:00.252", 1, 620, 224.479, 59.3331, 0.4364, 50, 0.008728, 28.7472, 232.188, 0.209885, 0.382614
"Med_NSS_2(1)", "00:00:00.253", 1, 621, 224.482, 59.3386, 0.00612112, 50, 0.000122422, 26.3415, 232.192, 0.00271606, 0.00548553
"Med_NSS_2(1)", "00:00:00.253", 1, 622, 223.617, 56.7103, 2.76718, 50, 0.0553437, -161.775, 230.696, -0.865448, -2.62836
"Med_NSS_2(1)", "00:00:00.253", 1, 623, 224.265, 57.217, 0.823236, 50, 0.0164647, 52.0097, 231.449, 0.648804, 0.506725
"Med_NSS_2(1)", "00:00:00.253", 1, 624, 224.263, 57.2159, 0.00235165, 50, 4.7033e-005, -118.062, 231.447, -0.0020752, -0.00110626
"Med_NSS_2(1)", "00:00:00.253", 1, 625, 226.493, 56.3022, 2.40958, 50, 0.0481915, 112.282, 233.386, 2.22964, -0.913643
"Med_NSS_2(1)", "00:00:00.254", 1, 626, 225.879, 55.9219, 0.722091, 50, 0.0144418, -121.785, 232.699, -0.6138, -0.380348
"Med_NSS_2(1)", "00:00:00.254", 1, 627, 229.45, 59.7437, 5.23053, 50, 0.104611, 43.057, 237.101, 3.57101, 3.82182
"Med_NSS_2(1)", "00:00:00.254", 1, 628, 229.227, 60.222, 0.527652, 50, 0.010553, -24.9758, 237.006, -0.222794, 0.47831
"Med_NSS_2(1)", "00:00:00.254", 1, 629, 228.697, 59.7668, 0.699309, 50, 0.0139862, -130.614, 236.377, -0.530853, -0.455223
"Med_NSS_2(1)", "00:00:00.254", 1, 630, 233.034, 67.588, 8.94323, 50, 0.178865, 29.009, 242.637, 4.33699, 7.82124
"Med_NSS_2(1)", "00:00:00.254", 1, 631, 236.68, 72.4851, 6.10547, 50, 0.122109, 36.6703, 247.531, 3.64624, 4.89711
"Med_NSS_2(1)", "00:00:00.255", 1, 632, 246.016, 86.3937, 16.7516, 50, 0.335032, 33.8724, 260.745, 9.33643, 13.9086
"Med_NSS_2(1)", "00:00:00.255", 1, 633, 250.95, 91.2015, 6.88895, 50, 0.137779, 45.7408, 267.009, 4.93379, 4.80785
"Med_NSS_2(1)", "00:00:00.255", 1, 634, 251.959, 91.8398, 1.19368, 50, 0.0238737, 57.6779, 268.175, 1.00873, 0.638237
"Med_NSS_2(1)", "00:00:00.255", 1, 635, 257.832, 101.918, 11.6649, 50, 0.233299, 30.2296, 277.245, 5.87291, 10.0787
"Med_NSS_2(1)", "00:00:00.255", 1, 636, 260.637, 104.166, 3.59479, 50, 0.0718958, 51.2984, 280.682, 2.80542, 2.2477
"Med_NSS_2(1)", "00:00:00.255", 1, 637, 267.288, 113.306, 11.3034, 50, 0.226069, 36.0428, 290.312, 6.65082, 9.13972
"Med_NSS_2(1)", "00:00:00.255", 1, 638, 270.308, 115.381, 3.66444, 50, 0.0732889, 55.5041, 293.904, 3.02011, 2.07535
"Med_NSS_2(1)", "00:00:00.256", 1, 639, 270.765, 115.455, 0.462807, 50, 0.00925613, 80.8197, 294.353, 0.456879, 0.0738373
"Med_NSS_2(1)", "00:00:00.256", 1, 640, 275.697, 123.259, 9.23218, 50, 0.184644, 32.2939, 301.996, 4.9324, 7.80413
"Med_NSS_2(1)", "00:00:00.256", 1, 641, 278.221, 124.754, 2.93327, 50, 0.0586654, 59.3623, 304.911, 2.5238, 1.49482
"Med_NSS_2(1)", "00:00:00.256", 1, 642, 278.739, 125.589, 0.982894, 50, 0.0196579, 31.8233, 305.726, 0.51828, 0.835144
"Med_NSS_2(1)", "00:00:00.256", 1, 643, 282.331, 133.657, 8.8309, 50, 0.176618, 23.9983, 312.37, 3.59161, 8.06754
"Med_NSS_2(1)", "00:00:00.257", 1, 644, 283.579, 135.693, 2.3884, 50, 0.0477679, 31.4912, 314.372, 1.24762, 2.03664
"Med_NSS_2(1)", "00:00:00.257", 1, 645, 287.534, 144.574, 9.72121, 50, 0.194424, 24.0083, 321.834, 3.95526, 8.88019
"Med_NSS_2(1)", "00:00:00.257", 1, 646, 287.77, 144.626, 0.241876, 50, 0.00483751, 77.3701, 322.069, 0.236023, 0.052887
"Med_NSS_2(1)", "00:00:00.257", 1, 647, 287.492, 144.443, 0.332682, 50, 0.00665364, -123.466, 321.738, -0.277527, -0.183456
"Med_NSS_2(1)", "00:00:00.257", 1, 648, 287.866, 148.103, 3.67927, 50, 0.0735855, 5.82695, 323.73, 0.373535, 3.66026
"Med_NSS_2(1)", "00:00:00.257", 1, 649, 287.352, 147.69, 0.659375, 50, 0.0131875, -128.795, 323.084, -0.513916, -0.413116
"Med_NSS_2(1)", "00:00:00.257", 1, 650, 286.153, 150.996, 3.51618, 50, 0.0703236, -19.9334, 323.548, -1.19876, 3.30553
"Med_NSS_2(1)", "00:00:00.258", 1, 651, 285.015, 150.548, 1.22289, 50, 0.0244579, -111.447, 322.333, -1.13821, -0.447144
"Med_NSS_2(1)", "00:00:00.258", 1, 652, 284.32, 150.689, 0.709257, 50, 0.0141851, -78.5328, 321.784, -0.695099, 0.141006
"Med_NSS_2(1)", "00:00:00.258", 1, 653, 283.068, 153.856, 3.40539, 50, 0.0681078, -21.5695, 322.179, -1.25192, 3.16692
"Med_NSS_2(1)", "00:00:00.258", 1, 654, 282.215, 153.721, 0.864132, 50, 0.0172826, -99.0163, 321.365, -0.853455, -0.135422
"Med_NSS_2(1)", "00:00:00.258", 1, 655, 281.755, 153.89, 0.490159, 50, 0.00980318, -69.8039, 321.042, -0.460022, 0.16922
"Med_NSS_2(1)", "00:00:00.259", 1, 656, 280.989, 156.336, 2.56288, 50, 0.0512577, -17.381, 321.552, -0.765594, 2.44586
"Med_NSS_2(1)", "00:00:00.259", 1, 657, 280.648, 155.846, 0.596319, 50, 0.0119264, -145.185, 321.017, -0.340454, -0.489578
"Med_NSS_2(1)", "00:00:00.259", 1, 658, 281.6, 157.853, 2.22042, 50, 0.0444084, 25.3671, 322.825, 0.951263, 2.00633
"Med_NSS_2(1)", "00:00:00.259", 1, 659, 282.595, 157.999, 1.00612, 50, 0.0201224, 81.6486, 323.765, 0.995453, 0.146133
"Med_NSS_2(1)", "00:00:00.259", 1, 660, 283.062, 157.943, 0.469977, 50, 0.00939955, 96.7965, 324.145, 0.466675, -0.0556183
"Med_NSS_2(1)", "00:00:00.259", 1, 661, 285.046, 158.866, 2.18875, 50, 0.043775, 65.0543, 326.328, 1.98456, 0.923126
"Med_NSS_2(1)", "00:00:00.260", 1, 662, 284.781, 158.762, 0.285274, 50, 0.00570548, -111.49, 326.045, -0.265442, -0.104507
"Med_NSS_2(1)", "00:00:00.260", 1, 663, 282.416, 147.261, 11.7412, 50, 0.234825, -168.378, 318.504, -2.36542, -11.5005
"Med_NSS_2(1)", "00:00:00.260", 1, 664, 282.191, 146.924, 0.40528, 50, 0.0081056, -146.339, 318.148, -0.22464, -0.337326
"Med_NSS_2(1)", "00:00:00.260", 1, 665, 282.219, 146.886, 0.0472683, 50, 0.000945367, 143.744, 318.156, 0.0279541, -0.0381165
"Med_NSS_2(1)", "00:00:00.260", 1, 666, 276.826, 145.215, 5.64561, 50, 0.112912, -107.214, 312.602, -5.39273, -1.67073
"Med_NSS_2(1)", "00:00:00.260", 1, 667, 276.771, 144.845, 0.374619, 50, 0.00749237, -171.606, 312.382, -0.0546875, -0.370605
"Med_NSS_2(1)", "00:00:00.261", 1, 668, 277.347, 144.797, 0.576997, 50, 0.0115399, 94.7177, 312.87, 0.575043, -0.0474548
"Med_NSS_2(1)", "00:00:00.261", 1, 669, 273.702, 143.558, 3.84973, 50, 0.0769946, -108.782, 309.066, -3.64474, -1.23946
"Med_NSS_2(1)", "00:00:00.261", 1, 670, 274.19, 143.924, 0.610544, 50, 0.0122109, 53.1347, 309.668, 0.488464, 0.366287
"Med_NSS_2(1)", "00:00:00.261", 1, 671, 271.957, 144.463, 2.29685, 50, 0.0459371, -76.4389, 307.945, -2.23282, 0.538574
"Med_NSS_2(1)", "00:00:00.261", 1, 672, 272.13, 143.729, 0.753645, 50, 0.0150729, 166.765, 307.754, 0.172546, -0.733627
"Med_NSS_2(1)", "00:00:00.262", 1, 673, 272.128, 143.727, 0.00321537, 50, 6.43074e-005, -134.616, 307.751, -0.00228882, -0.0022583
"Med_NSS_2(1)", "00:00:00.262", 1, 674, 270.495, 145.643, 2.51754, 50, 0.0503508, -40.437, 307.212, -1.6329, 1.91615
"Med_NSS_2(1)", "00:00:00.262", 1, 675, 269.789, 145.668, 0.706279, 50, 0.0141256, -87.982, 306.603, -0.705841, 0.0248718
"Med_NSS_2(1)", "00:00:00.262", 1, 676, 269.052, 148.241, 2.67698, 50, 0.0535396, -15.9683, 307.189, -0.73645, 2.57368
"Med_NSS_2(1)", "00:00:00.262", 1, 677, 267.68, 147.644, 1.49708, 50, 0.0299416, -113.502, 305.698, -1.37289, -0.597
"Med_NSS_2(1)", "00:00:00.262", 1, 678, 266.275, 147.541, 1.40868, 50, 0.0281736, -94.1955, 304.419, -1.40491, -0.103058
"Med_NSS_2(1)", "00:00:00.262", 1, 679, 263.806, 150.477, 3.8354, 50, 0.076708, -40.0569, 303.706, -2.46826, 2.93564
"Med_NSS_2(1)", "00:00:00.263", 1, 680, 262.246, 149.617, 1.78231, 50, 0.0356462, -118.869, 301.924, -1.56082, -0.860504
"Med_NSS_2(1)", "00:00:00.263", 1, 681, 261.317, 149.865, 0.960865, 50, 0.0192173, -75.0228, 301.241, -0.928223, 0.248322
"Med_NSS_2(1)", "00:00:00.263", 1, 682, 260.08, 152.883, 3.26176, 50, 0.0652351, -22.2938, 301.687, -1.23737, 3.01794
"Med_NSS_2(1)", "00:00:00.263", 1, 683, 259.428, 152.841, 0.653682, 50, 0.0130736, -93.6672, 301.103, -0.652344, -0.0418091
"Med_NSS_2(1)", "00:00:00.263", 1, 684, 259.079, 155.425, 2.60787, 50, 0.0521575, -7.68393, 302.124, -0.348694, 2.58446
"Med_NSS_2(1)", "00:00:00.264", 1, 685, 258.974, 154.962, 0.475673, 50, 0.00951345, -167.25, 301.796, -0.10498, -0.463943
"Med_NSS_2(1)", "00:00:00.264", 1, 686, 258.974, 154.962, 0, 50, 0, 0, 301.796, 0, 0
"Med_NSS_2(1)", "00:00:00.264", 1, 687, 260.03, 156.831, 2.14743, 50, 0.0429486, 29.4632, 303.664, 1.05624, 1.86971
"Med_NSS_2(1)", "00:00:00.264", 1, 688, 260.817, 157.029, 0.811376, 50, 0.0162275, 75.8724, 304.44, 0.786835, 0.198044
"Med_NSS_2(1)", "00:00:00.264", 1, 689, 262.869, 158.19, 2.3574, 50, 0.0471481, 60.4915, 306.797, 2.05161, 1.16115
"Med_NSS_2(1)", "00:00:00.264", 1, 690, 264.088, 158.048, 1.22788, 50, 0.0245576, 96.6553, 307.769, 1.2196, -0.142303
"Med_NSS_2(1)", "00:00:00.265", 1, 691, 264.628, 158.007, 0.541359, 50, 0.0108272, 94.3565, 308.211, 0.539795, -0.0411224
"Med_NSS_2(1)", "00:00:00.265", 1, 692, 265.741, 158.424, 1.18875, 50, 0.0237749, 69.4578, 309.381, 1.11316, 0.41713
"Med_NSS_2(1)", "00:00:00.265", 1, 693, 266.596, 158.132, 0.903698, 50, 0.018074, 108.857, 309.967, 0.855194, -0.292084
"Med_NSS_2(1)", "00:00:00.265", 1, 694, 267.766, 158.517, 1.23103, 50, 0.0246207, 71.7935, 311.169, 1.1694, 0.384628
"Med_NSS_2(1)", "00:00:00.265", 1, 695, 268.262, 158.994, 0.688541, 50, 0.0137708, 46.1251, 311.839, 0.496338, 0.477219
"Med_NSS_2(1)", "00:00:00.265", 1, 696, 268.26, 158.994, 0.00196169, 50, 3.92338e-005, -95.3559, 311.837, -0.00195313, -0.000183105
"Med_NSS_2(1)", "00:00:00.266", 1, 697, 268.418, 159.379, 0.415876, 50, 0.00831752, 22.2636, 312.169, 0.157562, 0.384872
"Med_NSS_2(1)", "00:00:00.266", 1, 698, 268.799, 159.147, 0.446372, 50, 0.00892744, 121.262, 312.379, 0.381561, -0.231644
"Med_NSS_2(1)", "00:00:00.266", 1, 699, 269.087, 159.121, 0.288297, 50, 0.00576595, 95.0679, 312.613, 0.28717, -0.0254669
"Med_NSS_2(1)", "00:00:00.266", 1, 700, 269.818, 159.689, 0.925797, 50, 0.0185159, 52.1521, 313.532, 0.731049, 0.568039
"Med_NSS_2(1)", "00:00:00.266", 1, 701, 270.017, 160.156, 0.50722, 50, 0.0101444, 23.1567, 313.941, 0.199463, 0.466354
"Med_NSS_2(1)", "00:00:00.266", 1, 702, 270.318, 160.616, 0.550288, 50, 0.0110058, 33.2168, 314.435, 0.301453, 0.460373
"Med_NSS_2(1)", "00:00:00.267", 1, 703, 270.235, 161.566, 0.953308, 50, 0.0190662, -5.03394, 314.85, -0.0836487, 0.949631
"Med_NSS_2(1)", "00:00:00.267", 1, 704, 270.001, 162.201, 0.677128, 50, 0.0135426, -20.1656, 314.976, -0.233429, 0.63562
"Med_NSS_2(1)", "00:00:00.267", 1, 705, 267.762, 161.2, 2.45289, 50, 0.0490577, -114.102, 312.541, -2.23904, -1.00166
"Med_NSS_2(1)", "00:00:00.267", 1, 706, 268.004, 161.183, 0.242258, 50, 0.00484517, 93.8934, 312.74, 0.241699, -0.016449
"Med_NSS_2(1)", "00:00:00.267", 1, 707, 265.106, 157.25, 4.88577, 50, 0.0977154, -143.623, 308.235, -2.89774, -3.93369
"Med_NSS_2(1)", "00:00:00.267", 1, 708, 265.05, 157.117, 0.144127, 50, 0.00288254, -157.084, 308.119, -0.0561218, -0.132751
"Med_NSS_2(1)", "00:00:00.267", 1, 709, 264.979, 157.132, 0.0732334, 50, 0.00146467, -78.0837, 308.065, -0.0716553, 0.0151215
"Med_NSS_2(1)", "00:00:00.268", 1, 710, 264.031, 154.499, 2.79849, 50, 0.0559698, -160.206, 305.912, -0.947662, -2.63315
"Med_NSS_2(1)", "00:00:00.268", 1, 711, 263.958, 154.1, 0.405991, 50, 0.00811982, -169.589, 305.647, -0.0733643, -0.399307
"Med_NSS_2(1)", "00:00:00.268", 1, 712, 263.961, 154.1, 0.00320667, 50, 6.41334e-005, 87.8184, 305.65, 0.00320435, 0.00012207
"Med_NSS_2(1)", "00:00:00.268", 1, 713, 263.03, 151.488, 2.77242, 50, 0.0554484, -160.391, 303.535, -0.93042, -2.61163
"Med_NSS_2(1)", "00:00:00.268", 1, 714, 262.938, 151.222, 0.281599, 50, 0.00563198, -160.949, 303.323, -0.0919189, -0.266174
"Med_NSS_2(1)", "00:00:00.269", 1, 715, 262.251, 148.208, 3.09147, 50, 0.0618294, -167.158, 301.233, -0.687103, -3.01414
"Med_NSS_2(1)", "00:00:00.269", 1, 716, 261.929, 148.499, 0.434543, 50, 0.00869086, -47.9476, 301.096, -0.322662, 0.291061
"Med_NSS_2(1)", "00:00:00.269", 1, 717, 261.933, 148.496, 0.00535347, 50, 0.000107069, 125.955, 301.098, 0.0043335, -0.00314331
"Med_NSS_2(1)", "00:00:00.269", 1, 718, 263.56, 143.778, 4.99032, 50, 0.0998064, 160.972, 300.227, 1.62698, -4.71765
"Med_NSS_2(1)", "00:00:00.269", 1, 719, 263.389, 144.187, 0.443233, 50, 0.00886465, -22.6622, 300.273, -0.170776, 0.409012
"Med_NSS_2(1)", "00:00:00.269", 1, 720, 264.599, 140.565, 3.81881, 50, 0.0763761, 161.532, 299.618, 1.20969, -3.62215
"Med_NSS_2(1)", "00:00:00.270", 1, 721, 265.23, 140.128, 0.767075, 50, 0.0153415, 124.676, 299.971, 0.630829, -0.436417
"Med_NSS_2(1)", "00:00:00.270", 1, 722, 264.926, 139.527, 0.674375, 50, 0.0134875, -153.196, 299.421, -0.304108, -0.601913
"Med_NSS_2(1)", "00:00:00.270", 1, 723, 268.612, 128.465, 11.6595, 50, 0.233189, 161.571, 297.751, 3.68597, -11.0615
"Med_NSS_2(1)", "00:00:00.270", 1, 724, 270.315, 124.123, 4.66464, 50, 0.0932927, 158.582, 297.45, 1.70337, -4.34251
"Med_NSS_2(1)", "00:00:00.270", 1, 725, 270.357, 122.381, 1.74222, 50, 0.0348445, 178.625, 296.766, 0.0418091, -1.74172
"Med_NSS_2(1)", "00:00:00.270", 1, 726, 268.758, 113.512, 9.01186, 50, 0.180237, -169.779, 291.746, -1.59912, -8.86884
"Med_NSS_2(1)", "00:00:00.271", 1, 727, 270.036, 113.125, 1.33579, 50, 0.0267158, 106.854, 292.774, 1.27841, -0.387299
"Med_NSS_2(1)", "00:00:00.271", 1, 728, 271.198, 107.298, 5.94147, 50, 0.118829, 168.717, 291.653, 1.16245, -5.82664
"Med_NSS_2(1)", "00:00:00.271", 1, 729, 271.914, 106.044, 1.44426, 50, 0.0288851, 150.28, 291.861, 0.716003, -1.25428
"Med_NSS_2(1)", "00:00:00.271", 1, 730, 272.674, 105.193, 1.14095, 50, 0.0228191, 138.246, 292.261, 0.759796, -0.851166
"Med_NSS_2(1)", "00:00:00.272", 1, 731, 272.951, 100.296, 4.90404, 50, 0.0980809, 176.765, 290.795, 0.276794, -4.89622
"Med_NSS_2(1)", "00:00:00.272", 1, 732, 272.63, 100.194, 0.337034, 50, 0.00674069, -107.651, 290.458, -0.321167, -0.102196
"Med_NSS_2(1)", "00:00:00.272", 1, 733, 268.224, 94.525, 7.18017, 50, 0.143603, -142.144, 284.392, -4.40631, -5.66915
"Med_NSS_2(1)", "00:00:00.272", 1, 734, 268.329, 95.0372, 0.522766, 50, 0.0104553, 11.5813, 284.662, 0.10495, 0.512123
"Med_NSS_2(1)", "00:00:00.272", 1, 735, 268.329, 95.0372, 0, 50, 0, 0, 284.662, 0, 0
"Med_NSS_2(1)", "00:00:00.272", 1, 736, 260.926, 91.5031, 8.20278, 50, 0.164056, -115.521, 276.505, -7.40244, -3.53405
"Med_NSS_2(1)", "00:00:00.272", 1, 737, 259.293, 91.1406, 1.67239, 50, 0.0334478, -102.518, 274.845, -1.63263, -0.362495
"Med_NSS_2(1)", "00:00:00.273", 1, 738, 260.255, 91.633, 1.08035, 50, 0.021607, 62.8882, 275.915, 0.961639, 0.492348
"Med_NSS_2(1)", "00:00:00.273", 1, 739, 252.613, 86.6387, 9.12928, 50, 0.182586, -123.166, 267.057, -7.64206, -4.99427
"Med_NSS_2(1)", "00:00:00.273", 1, 740, 250.942, 86.1156, 1.75126, 50, 0.0350252, -107.379, 265.307, -1.67131, -0.523094
"Med_NSS_2(1)", "00:00:00.273", 1, 741, 242.822, 81.1686, 9.50807, 50, 0.190161, -121.352, 256.029, -8.1198, -4.94695
"Med_NSS_2(1)", "00:00:00.273", 1, 742, 241.646, 80.7117, 1.26155, 50, 0.025231, -111.236, 254.769, -1.17589, -0.456947
"Med_NSS_2(1)", "00:00:00.274", 1, 743, 242.252, 81.3722, 0.896446, 50, 0.0179289, 42.5443, 255.553, 0.60614, 0.660461
"Med_NSS_2(1)", "00:00:00.274", 1, 744, 236.504, 78.8944, 6.25931, 50, 0.125186, -113.32, 249.316, -5.748, -2.4778
"Med_NSS_2(1)", "00:00:00.274", 1, 745, 236.851, 79.0953, 0.400579, 50, 0.00801159, 59.8858, 249.708, 0.346512, 0.200981
"Med_NSS_2(1)", "00:00:00.274", 1, 746, 232.414, 78.7842, 4.44793, 50, 0.0889585, -94.0118, 245.404, -4.43703, -0.31118
"Med_NSS_2(1)", "00:00:00.274", 1, 747, 231.95, 78.8613, 0.470116, 50, 0.00940232, -80.5567, 244.99, -0.463745, 0.0771332
"Med_NSS_2(1)", "00:00:00.274", 1, 748, 231.95, 78.8613, 0, 50, 0, 0, 244.99, 0, 0
"Med_NSS_2(1)", "00:00:00.274", 1, 749, 232.236, 79.5368, 0.733527, 50, 0.0146705, 22.9477, 245.478, 0.285995, 0.675476
"Med_NSS_2(1)", "00:00:00.275", 1, 750, 231.295, 79.8525, 0.992624, 50, 0.0198525, -71.4559, 244.691, -0.941086, 0.315689
"Med_NSS_2(1)", "00:00:00.275", 1, 751, 233.078, 83.087, 3.69357, 50, 0.0738713, 28.8703, 247.445, 1.78336, 3.23451
"Med_NSS_2(1)", "00:00:00.275", 1, 752, 234.967, 84.442, 2.32497, 50, 0.0464994, 54.3499, 249.68, 1.88925, 1.35507
"Med_NSS_2(1)", "00:00:00.275", 1, 753, 236.086, 84.909, 1.212, 50, 0.02424, 67.3417, 250.891, 1.11845, 0.466904
"Med_NSS_2(1)", "00:00:00.275", 1, 754, 241.055, 93.0949, 9.57617, 50, 0.191523, 31.259, 258.407, 4.96915, 8.186
"Med_NSS_2(1)", "00:00:00.276", 1, 755, 243.927, 95.2315, 3.5797, 50, 0.071594, 53.3561, 261.858, 2.87221, 2.13651
"Med_NSS_2(1)", "00:00:00.276", 1, 756, 244.896, 95.7001, 1.07636, 50, 0.0215273, 64.1888, 262.931, 0.968979, 0.468658
"Med_NSS_2(1)", "00:00:00.276", 1, 757, 251.496, 105.049, 11.4438, 50, 0.228876, 35.2194, 272.554, 6.59972, 9.349
"Med_NSS_2(1)", "00:00:00.276", 1, 758, 257.275, 109.619, 7.36744, 50, 0.147349, 51.6619, 279.654, 5.77875, 4.57004
"Med_NSS_2(1)", "00:00:00.276", 1, 759, 265.192, 122.002, 14.6975, 50, 0.29395, 32.5932, 291.91, 7.91711, 12.3829
"Med_NSS_2(1)", "00:00:00.276", 1, 760, 269.011, 124.83, 4.75205, 50, 0.095041, 53.4829, 296.563, 3.81912, 2.82777
"Med_NSS_2(1)", "00:00:00.277", 1, 761, 269.109, 124.644, 0.210466, 50, 0.00420931, 152.11, 296.574, 0.0984497, -0.18602
"Med_NSS_2(1)", "00:00:00.277", 1, 762, 271.914, 132.981, 8.79633, 50, 0.175927, 18.592, 302.69, 2.8045, 8.33728
"Med_NSS_2(1)", "00:00:00.277", 1, 763, 274.034, 134.174, 2.43288, 50, 0.0486576, 60.6385, 305.119, 2.12036, 1.19289
"Med_NSS_2(1)", "00:00:00.277", 1, 764, 278.183, 142.203, 9.03769, 50, 0.180754, 27.3249, 312.422, 4.14862, 8.02925
"Med_NSS_2(1)", "00:00:00.277", 1, 765, 277.776, 142.005, 0.45237, 50, 0.0090474, -116.053, 311.97, -0.406403, -0.198685
"Med_NSS_2(1)", "00:00:00.277", 1, 766, 277.825, 141.935, 0.0850136, 50, 0.00170027, 145.146, 311.981, 0.048584, -0.0697632
"Med_NSS_2(1)", "00:00:00.278", 1, 767, 271.318, 151.16, 11.2888, 50, 0.225777, -35.1969, 310.585, -6.50674, 9.22498
"Med_NSS_2(1)", "00:00:00.278", 1, 768, 271.323, 150.474, 0.686111, 50, 0.0137222, 179.626, 310.255, 0.00448608, -0.686096
"Med_NSS_2(1)", "00:00:00.278", 1, 769, 271.406, 149.279, 1.19798, 50, 0.0239597, 176.033, 309.75, 0.0828857, -1.19511
"Med_NSS_2(1)", "00:00:00.278", 1, 770, 266.451, 151.832, 5.57367, 50, 0.111473, -62.7348, 306.674, -4.95441, 2.55336
"Med_NSS_2(1)", "00:00:00.278", 1, 771, 266.11, 151.051, 0.85191, 50, 0.0170382, -156.42, 305.992, -0.34079, -0.780777
"Med_NSS_2(1)", "00:00:00.279", 1, 772, 262.095, 154.139, 5.06535, 50, 0.101307, -52.44, 304.06, -4.01538, 3.0878
"Med_NSS_2(1)", "00:00:00.279", 1, 773, 261.87, 153.93, 0.307041, 50, 0.00614083, -132.952, 303.76, -0.224731, -0.209213
"Med_NSS_2(1)", "00:00:00.279", 1, 774, 261.87, 153.93, 0, 50, 0, 0, 303.76, 0, 0
"Med_NSS_2(1)", "00:00:00.279", 1, 775, 258.075, 157.955, 5.53256, 50, 0.110651, -43.318, 302.576, -3.79559, 4.02525
"Med_NSS_2(1)", "00:00:00.279", 1, 776, 257.76, 158.624, 0.739108, 50, 0.0147822, -25.2393, 302.657, -0.315155, 0.668549
"Med_NSS_2(1)", "00:00:00.279", 1, 777, 255.49, 163.404, 5.29138, 50, 0.105828, -25.3946, 303.276, -2.26921, 4.78011
"Med_NSS_2(1)", "00:00:00.280", 1, 778, 255.664, 161.886, 1.5273, 50, 0.0305461, 173.46, 302.608, 0.17395, -1.51736
"Med_NSS_2(1)", "00:00:00.280", 1, 779, 256.172, 161.822, 0.511359, 50, 0.0102272, 97.1618, 303.002, 0.50737, -0.0637512
"Med_NSS_2(1)", "00:00:00.280", 1, 780, 253.746, 165.133, 4.10448, 50, 0.0820897, -36.2312, 302.747, -2.42593, 3.31084
"Med_NSS_2(1)", "00:00:00.280", 1, 781, 253.769, 165.24, 0.109399, 50, 0.00218799, 12.0356, 302.825, 0.0228119, 0.106995
"Med_NSS_2(1)", "00:00:00.280", 1, 782, 253.783, 165.206, 0.0376773, 50, 0.000753545, 156.768, 302.818, 0.0148621, -0.0346222
"Med_NSS_2(1)", "00:00:00.281", 1, 783, 253.072, 167.007, 1.93653, 50, 0.0387307, -21.5613, 303.21, -0.71167, 1.80103
"Med_NSS_2(1)", "00:00:00.281", 1, 784, 253.005, 166.979, 0.072043, 50, 0.00144086, -112.437, 303.14, -0.0665894, -0.0274963
"Med_NSS_2(1)", "00:00:00.281", 1, 785, 251.778, 167.39, 1.2942, 50, 0.0258839, -71.4777, 302.344, -1.22716, 0.411133
"Med_NSS_2(1)", "00:00:00.281", 1, 786, 252.725, 167.141, 0.978975, 50, 0.0195795, 104.784, 302.995, 0.946564, -0.249817
"Med_NSS_2(1)", "00:00:00.281", 1, 787, 253.423, 167.073, 0.701906, 50, 0.0140381, 95.5302, 303.54, 0.698639, -0.0676422
"Med_NSS_2(1)", "00:00:00.281", 1, 788, 251.446, 167.363, 1.99807, 50, 0.0399613, -81.6526, 302.052, -1.9769, 0.29007
"Med_NSS_2(1)", "00:00:00.281", 1, 789, 252.849, 167.063, 1.43386, 50, 0.0286773, 102.065, 303.055, 1.40219, -0.299713
"Med_NSS_2(1)", "00:00:00.282", 1, 790, 257.14, 166.523, 4.32518, 50, 0.0865035, 97.1705, 306.351, 4.29135, -0.539871
"Med_NSS_2(1)", "00:00:00.282", 1, 791, 260.261, 166.995, 3.15616, 50, 0.0631232, 81.4139, 309.229, 3.12079, 0.471207
"Med_NSS_2(1)", "00:00:00.282", 1, 792, 262.142, 166.961, 1.88144, 50, 0.0376287, 91.0271, 310.796, 1.88113, -0.0337219
"Med_NSS_2(1)", "00:00:00.282", 1, 793, 266.16, 166.523, 4.04192, 50, 0.0808383, 96.2194, 313.96, 4.01813, -0.437881
"Med_NSS_2(1)", "00:00:00.282", 1, 794, 268.374, 166.895, 2.24514, 50, 0.0449028, 80.4727, 316.036, 2.21417, 0.371613
"Med_NSS_2(1)", "00:00:00.283", 1, 795, 269.508, 166.872, 1.13371, 50, 0.0226742, 91.1469, 316.987, 1.13348, -0.0226898
"Med_NSS_2(1)", "00:00:00.283", 1, 796, 273.854, 163.923, 5.25245, 50, 0.105049, 124.151, 319.166, 4.34671, -2.94862
"Med_NSS_2(1)", "00:00:00.283", 1, 797, 276.019, 162.899, 2.3949, 50, 0.047898, 115.312, 320.504, 2.16498, -1.02393
"Med_NSS_2(1)", "00:00:00.283", 1, 798, 280.848, 153.033, 10.9845, 50, 0.219691, 153.92, 319.836, 4.82913, -9.86607
"Med_NSS_2(1)", "00:00:00.283", 1, 799, 280.561, 153.452, 0.508117, 50, 0.0101623, -34.4222, 319.785, -0.287231, 0.419144
"Med_NSS_2(1)", "00:00:00.283", 1, 800, 280.144, 154.109, 0.7776, 50, 0.015552, -32.4265, 319.735, -0.416962, 0.656357
"Med_NSS_2(1)", "00:00:00.284", 1, 801, 277.55, 145.577, 8.91737, 50, 0.178347, -163.088, 313.412, -2.59406, -8.53172
"Med_NSS_2(1)", "00:00:00.284", 1, 802, 278.069, 145.608, 0.519658, 50, 0.0103932, 86.5339, 313.886, 0.518707, 0.0314178
"Med_NSS_2(1)", "00:00:00.284", 1, 803, 275.272, 136.638, 9.39633, 50, 0.187927, -162.686, 307.319, -2.79639, -8.97058
"Med_NSS_2(1)", "00:00:00.284", 1, 804, 275.963, 135.164, 1.62767, 50, 0.0325534, 154.915, 307.286, 0.690063, -1.47415
"Med_NSS_2(1)", "00:00:00.284", 1, 805, 275.915, 134.978, 0.191514, 50, 0.00383027, -165.569, 307.161, -0.0477295, -0.185471
"Med_NSS_2(1)", "00:00:00.284", 1, 806, 273.945, 125.075, 10.0975, 50, 0.20195, -168.751, 301.147, -1.96985, -9.90348
"Med_NSS_2(1)", "00:00:00.285", 1, 807, 275.702, 122.598, 3.03661, 50, 0.0607323, 144.644, 301.732, 1.75714, -2.47659
"Med_NSS_2(1)", "00:00:00.285", 1, 808, 278.992, 108.236, 14.7347, 50, 0.294693, 167.098, 299.252, 3.2901, -14.3626
"Med_NSS_2(1)", "00:00:00.285", 1, 809, 282.871, 90.5518, 18.1042, 50, 0.362085, 167.628, 297.011, 3.87891, -17.6838
"Med_NSS_2(1)", "00:00:00.285", 1, 810, 285.672, 79.7658, 11.1436, 50, 0.222873, 165.445, 296.599, 2.8006, -10.786
"Med_NSS_2(1)", "00:00:00.285", 1, 811, 285.561, 58.0383, 21.7278, 50, 0.434556, -179.709, 291.4, -0.110229, -21.7275
"Med_NSS_2(1)", "00:00:00.286", 1, 812, 289.737, 49.8324, 9.20705, 50, 0.184141, 153.033, 293.991, 4.17526, -8.20591
"Med_NSS_2(1)", "00:00:00.286", 1, 813, 289.151, 51.0506, 1.3516, 50, 0.027032, -25.665, 293.623, -0.585388, 1.21825
"Med_NSS_2(1)", "00:00:00.286", 1, 814, 283.809, 51.3793, 5.35221, 50, 0.107044, -86.4789, 288.422, -5.3421, 0.32872
"Med_NSS_2(1)", "00:00:00.286", 1, 815, 282.53, 52.4849, 1.69077, 50, 0.0338154, -49.1653, 287.364, -1.27924, 1.10556
"Med_NSS_2(1)", "00:00:00.286", 1, 816, 276.912, 54.3947, 5.9339, 50, 0.118678, -71.2252, 282.204, -5.61816, 1.90982
"Med_NSS_2(1)", "00:00:00.286", 1, 817, 275.329, 55.1193, 1.74108, 50, 0.0348217, -65.4083, 280.792, -1.58316, 0.724552
"Med_NSS_2(1)", "00:00:00.286", 1, 818, 274.646, 55.3494, 0.720609, 50, 0.0144122, -71.3804, 280.168, -0.682892, 0.23008
"Med_NSS_2(1)", "00:00:00.287", 1, 819, 271.258, 56.2939, 3.51747, 50, 0.0703494, -74.4229, 277.037, -3.38828, 0.944565
"Med_NSS_2(1)", "00:00:00.287", 1, 820, 271.046, 56.1691, 0.245826, 50, 0.00491652, -120.509, 276.805, -0.211792, -0.124798
"Med_NSS_2(1)", "00:00:00.287", 1, 821, 269.071, 57.3518, 2.30183, 50, 0.0460365, -59.0814, 275.115, -1.97473, 1.18273
"Med_NSS_2(1)", "00:00:00.287", 1, 822, 269.117, 57.1425, 0.214369, 50, 0.00428737, 167.612, 275.117, 0.04599, -0.209377
"Med_NSS_2(1)", "00:00:00.287", 1, 823, 269.631, 56.9297, 0.556142, 50, 0.0111228, 112.496, 275.575, 0.513824, -0.212788
"Med_NSS_2(1)", "00:00:00.288", 1, 824, 267.946, 58.6917, 2.43805, 50, 0.048761, -43.7192, 274.299, -1.685, 1.76207
"Med_NSS_2(1)", "00:00:00.288", 1, 825, 268.378, 58.6248, 0.436828, 50, 0.00873655, 98.8124, 274.706, 0.431671, -0.0669212
"Med_NSS_2(1)", "00:00:00.288", 1, 826, 268.583, 58.5614, 0.21549, 50, 0.00430981, 107.129, 274.894, 0.205933, -0.0634651
"Med_NSS_2(1)", "00:00:00.288", 1, 827, 268.166, 60.2576, 1.74694, 50, 0.0349387, -13.8366, 274.852, -0.417786, 1.69624
"Med_NSS_2(1)", "00:00:00.288", 1, 828, 268.63, 59.5995, 0.805123, 50, 0.0161025, 144.82, 275.162, 0.463867, -0.658066
"Med_NSS_2(1)", "00:00:00.288", 1, 829, 268.677, 61.3944, 1.79553, 50, 0.0359105, 1.52714, 275.603, 0.0478516, 1.79489
"Med_NSS_2(1)", "00:00:00.288", 1, 830, 269.015, 61.0077, 0.513131, 50, 0.0102626, 138.915, 275.846, 0.337219, -0.386765
"Med_NSS_2(1)", "00:00:00.289", 1, 831, 268.942, 61, 0.0732774, 50, 0.00146555, -96.0003, 275.773, -0.072876, -0.00765991
"Med_NSS_2(1)", "00:00:00.289", 1, 832, 268.768, 63.2831, 2.28973, 50, 0.0457947, -4.36153, 276.117, -0.174133, 2.2831
"Med_NSS_2(1)", "00:00:00.289", 1, 833, 268.868, 63.1764, 0.146504, 50, 0.00293007, 136.772, 276.191, 0.100342, -0.106747
"Med_NSS_2(1)", "00:00:00.289", 1, 834, 269.153, 65.478, 2.31921, 50, 0.0463841, 7.04972, 277.003, 0.284637, 2.30167
"Med_NSS_2(1)", "00:00:00.289", 1, 835, 268.672, 65.7392, 0.546855, 50, 0.0109371, -61.4677, 276.598, -0.480438, 0.261208
"Med_NSS_2(1)", "00:00:00.290", 1, 836, 268.781, 66.457, 0.725942, 50, 0.0145188, 8.63144, 276.875, 0.108948, 0.71772
"Med_NSS_2(1)", "00:00:00.290", 1, 837, 266.234, 72.5299, 6.58531, 50, 0.131706, -22.7508, 275.937, -2.54669, 6.07294
"Med_NSS_2(1)", "00:00:00.290", 1, 838, 265.12, 74.3543, 2.13761, 50, 0.0427522, -31.4094, 275.35, -1.11401, 1.82438
"Med_NSS_2(1)", "00:00:00.290", 1, 839, 264.435, 74.8059, 0.82106, 50, 0.0164212, -56.6342, 274.812, -0.68573, 0.451569
"Med_NSS_2(1)", "00:00:00.290", 1, 840, 260.783, 81.4817, 7.60911, 50, 0.152182, -28.6755, 273.217, -3.65121, 6.67587
"Med_NSS_2(1)", "00:00:00.290", 1, 841, 260.652, 81.5374, 0.142734, 50, 0.00285468, -67.0532, 273.108, -0.131439, 0.0556488
"Med_NSS_2(1)", "00:00:00.291", 1, 842, 258.972, 87.5257, 6.21942, 50, 0.124388, -15.6685, 273.363, -1.67969, 5.98831
"Med_NSS_2(1)", "00:00:00.291", 1, 843, 259.092, 87.851, 0.346834, 50, 0.00693669, 20.2734, 273.581, 0.120178, 0.325348
"Med_NSS_2(1)", "00:00:00.291", 1, 844, 259.096, 87.8437, 0.00807474, 50, 0.000161495, 154.718, 273.582, 0.00344849, -0.00730133
"Med_NSS_2(1)", "00:00:00.291", 1, 845, 258.416, 92.1408, 4.35059, 50, 0.0870119, -8.99702, 274.351, -0.680359, 4.29707
"Med_NSS_2(1)", "00:00:00.291", 1, 846, 257.912, 92.4378, 0.584779, 50, 0.0116956, -59.4791, 273.977, -0.503754, 0.296982
"Med_NSS_2(1)", "00:00:00.291", 1, 847, 257.656, 97.2285, 4.79752, 50, 0.0959505, -3.05421, 275.391, -0.255615, 4.79071
"Med_NSS_2(1)", "00:00:00.292", 1, 848, 258.234, 98.3713, 1.28048, 50, 0.0256097, 26.8118, 276.336, 0.577576, 1.14282
"Med_NSS_2(1)", "00:00:00.292", 1, 849, 258.177, 98.7931, 0.425657, 50, 0.00851315, -7.71314, 276.433, -0.0571289, 0.421806
"Med_NSS_2(1)", "00:00:00.292", 1, 850, 258.343, 105.722, 6.9306, 50, 0.138612, 1.3731, 279.138, 0.166077, 6.92861
"Med_NSS_2(1)", "00:00:00.292", 1, 851, 258.105, 106.453, 0.768548, 50, 0.015371, -18.0162, 279.196, -0.237701, 0.730865
"Med_NSS_2(1)", "00:00:00.292", 1, 852, 258.73, 114.38, 7.95185, 50, 0.159037, 4.50535, 282.885, 0.624634, 7.92728
"Med_NSS_2(1)", "00:00:00.292", 1, 853, 259.427, 114.82, 0.82464, 50, 0.0164928, 57.7656, 283.701, 0.69754, 0.43985
"Med_NSS_2(1)", "00:00:00.293", 1, 854, 259.289, 115.526, 0.719644, 50, 0.0143929, -11.0829, 283.861, -0.138336, 0.706223
"Med_NSS_2(1)", "00:00:00.293", 1, 855, 260.507, 123.709, 8.27343, 50, 0.165469, 8.46568, 288.388, 1.21799, 8.18328
"Med_NSS_2(1)", "00:00:00.293", 1, 856, 261.714, 125.213, 1.92891, 50, 0.0385782, 38.753, 290.125, 1.20743, 1.50426
"Med_NSS_2(1)", "00:00:00.293", 1, 857, 261.918, 125.194, 0.204675, 50, 0.0040935, 95.4931, 290.301, 0.203735, -0.0195923
"Med_NSS_2(1)", "00:00:00.293", 1, 858, 263.608, 133.011, 7.99754, 50, 0.159951, 12.1979, 295.264, 1.68979, 7.81699
"Med_NSS_2(1)", "00:00:00.293", 1, 859, 264.561, 135.399, 2.57075, 50, 0.0514149, 21.7551, 297.195, 0.95282, 2.38765
"Med_NSS_2(1)", "00:00:00.293", 1, 860, 264.196, 142.569, 7.18014, 50, 0.143603, -2.91013, 300.209, -0.364532, 7.17088
"Med_NSS_2(1)", "00:00:00.294", 1, 861, 263.888, 142.979, 0.512781, 50, 0.0102556, -36.9565, 300.133, -0.308289, 0.40976
"Med_NSS_2(1)", "00:00:00.294", 1, 862, 263.815, 142.705, 0.283617, 50, 0.00567234, -165.207, 299.939, -0.0724182, -0.274216
"Med_NSS_2(1)", "00:00:00.294", 1, 863, 259.735, 147.751, 6.48897, 50, 0.129779, -38.9606, 298.819, -4.08017, 5.04568
"Med_NSS_2(1)", "00:00:00.294", 1, 864, 258.738, 149.523, 2.03376, 50, 0.0406753, -29.3566, 298.835, -0.99704, 1.7726
"Med_NSS_2(1)", "00:00:00.294", 1, 865, 253.161, 154.581, 7.52853, 50, 0.150571, -47.795, 296.624, -5.57672, 5.05756
"Med_NSS_2(1)", "00:00:00.295", 1, 866, 252.333, 155.273, 1.07981, 50, 0.0215962, -50.1423, 296.279, -0.828903, 0.692032
"Med_NSS_2(1)", "00:00:00.295", 1, 867, 252.891, 154.444, 0.999041, 50, 0.0199808, 146.029, 296.322, 0.558243, -0.828522
"Med_NSS_2(1)", "00:00:00.295", 1, 868, 248.247, 155.682, 4.80578, 50, 0.0961156, -75.0698, 293.025, -4.64354, 1.23817
"Med_NSS_2(1)", "00:00:00.295", 1, 869, 247.161, 156.909, 1.63895, 50, 0.032779, -41.527, 292.761, -1.08658, 1.22699
"Med_NSS_2(1)", "00:00:00.295", 1, 870, 247.207, 157.259, 0.352477, 50, 0.00704954, 7.52466, 292.987, 0.0461578, 0.349442
"Med_NSS_2(1)", "00:00:00.296", 1, 871, 239.965, 157.311, 7.24183, 50, 0.144837, -89.5859, 286.932, -7.24164, 0.0523529
"Med_NSS_2(1)", "00:00:00.296", 1, 872, 239.958, 157.899, 0.587956, 50, 0.0117591, -0.74796, 287.249, -0.00767517, 0.587906
"Med_NSS_2(1)", "00:00:00.296", 1, 873, 244.083, 162.531, 6.20273, 50, 0.124055, 41.6848, 293.245, 4.12502, 4.63229
"Med_NSS_2(1)", "00:00:00.296", 1, 874, 246.238, 164.271, 2.77003, 50, 0.0554006, 51.0876, 296.004, 2.15538, 1.73994
"Med_NSS_2(1)", "00:00:00.296", 1, 875, 247.325, 164.72, 1.17599, 50, 0.0235197, 67.5839, 297.157, 1.08713, 0.448441
"Med_NSS_2(1)", "00:00:00.296", 1, 876, 250.794, 167.246, 4.29084, 50, 0.0858169, 53.9386, 301.444, 3.46866, 2.52582
"Med_NSS_2(1)", "00:00:00.297", 1, 877, 251.324, 166.99, 0.589135, 50, 0.0117827, 115.711, 301.744, 0.530807, -0.255585
"Med_NSS_2(1)", "00:00:00.297", 1, 878, 254.843, 168.253, 3.73819, 50, 0.0747638, 70.25, 305.375, 3.5183, 1.2632
"Med_NSS_2(1)", "00:00:00.297", 1, 879, 257.865, 167.914, 3.04072, 50, 0.0608143, 96.3986, 307.716, 3.02177, -0.338867
"Med_NSS_2(1)", "00:00:00.297", 1, 880, 260.05, 167.916, 2.18533, 50, 0.0437067, 89.9637, 309.551, 2.18533, 0.00138855
"Med_NSS_2(1)", "00:00:00.297", 1, 881, 266.148, 166.786, 6.2024, 50, 0.124048, 100.498, 314.09, 6.09857, -1.13011
"Med_NSS_2(1)", "00:00:00.297", 1, 882, 270.068, 166.455, 3.93389, 50, 0.0786779, 94.825, 317.245, 3.91995, -0.330887
"Med_NSS_2(1)", "00:00:00.298", 1, 883, 272.081, 165.544, 2.20883, 50, 0.0441766, 114.353, 318.485, 2.0123, -0.910812
"Med_NSS_2(1)", "00:00:00.298", 1, 884, 275.576, 161.796, 5.12522, 50, 0.102504, 137.002, 319.562, 3.49527, -3.74846
"Med_NSS_2(1)", "00:00:00.298", 1, 885, 275.848, 161.666, 0.301195, 50, 0.0060239, 115.407, 319.731, 0.272064, -0.129227
"Med_NSS_2(1)", "00:00:00.298", 1, 886, 270.311, 157.402, 6.98848, 50, 0.13977, -127.604, 312.8, -5.53662, -4.26434
"Med_NSS_2(1)", "00:00:00.298", 1, 887, 269.209, 156.85, 1.23249, 50, 0.0246497, -116.601, 311.57, -1.10202, -0.55188
"Med_NSS_2(1)", "00:00:00.298", 1, 888, 268.379, 156.895, 0.831236, 50, 0.0166247, -86.9359, 310.875, -0.830048, 0.0444336
"Med_NSS_2(1)", "00:00:00.299", 1, 889, 259.98, 150.995, 10.2637, 50, 0.205274, -125.083, 300.648, -8.39902, -5.89912
"Med_NSS_2(1)", "00:00:00.299", 1, 890, 257.572, 148.896, 3.19504, 50, 0.0639008, -131.07, 297.512, -2.40875, -2.09909
"Med_NSS_2(1)", "00:00:00.299", 1, 891, 249.729, 138.394, 13.1072, 50, 0.262144, -143.247, 285.513, -7.84286, -10.5018
"Med_NSS_2(1)", "00:00:00.299", 1, 892, 248.024, 135.903, 3.01897, 50, 0.0603793, -145.619, 282.817, -1.7048, -2.49155
"Med_NSS_2(1)", "00:00:00.299", 1, 893, 248.936, 136.882, 1.33811, 50, 0.0267623, 42.9433, 284.088, 0.911621, 0.979538
"Med_NSS_2(1)", "00:00:00.300", 1, 894, 243.228, 129.66, 9.20545, 50, 0.184109, -141.681, 275.629, -5.70773, -7.22234
"Med_NSS_2(1)", "00:00:00.300", 1, 895, 243.336, 124.949, 4.71187, 50, 0.0942374, 178.68, 273.542, 0.108566, -4.71062
"Med_NSS_2(1)", "00:00:00.300", 1, 896, 243.281, 121.215, 3.73456, 50, 0.0746912, -179.149, 271.806, -0.0554962, -3.73415
"Med_NSS_2(1)", "00:00:00.300", 1, 897, 241.199, 106.55, 14.8124, 50, 0.296248, -171.921, 263.685, -2.08162, -14.6654
"Med_NSS_2(1)", "00:00:00.300", 1, 898, 241.468, 101.38, 5.17736, 50, 0.103547, 177.025, 261.887, 0.268753, -5.17038
"Med_NSS_2(1)", "00:00:00.300", 1, 899, 239.306, 86.9777, 14.5633, 50, 0.291266, -171.461, 254.622, -2.16243, -14.4019
"Med_NSS_2(1)", "00:00:00.300", 1, 900, 238.782, 84.5437, 2.48975, 50, 0.049795, -167.852, 253.307, -0.523941, -2.434
"Med_NSS_2(1)", "00:00:00.301", 1, 901, 239.16, 86.2833, 1.78024, 50, 0.0356048, 12.2622, 254.248, 0.378098, 1.73962
"Med_NSS_2(1)", "00:00:00.301", 1, 902, 238.905, 82.519, 3.7729, 50, 0.075458, -176.13, 252.755, -0.254654, -3.7643
"Med_NSS_2(1)", "00:00:00.301", 1, 903, 238.993, 83.2798, 0.765898, 50, 0.015318, 6.61708, 253.088, 0.0882568, 0.760796
"Med_NSS_2(1)", "00:00:00.301", 1, 904, 238.796, 80.5415, 2.74548, 50, 0.0549096, -175.874, 252.013, -0.197556, -2.73837
"Med_NSS_2(1)", "00:00:00.301", 1, 905, 239.027, 80.7435, 0.30743, 50, 0.0061486, 48.9061, 252.297, 0.231689, 0.202072
"Med_NSS_2(1)", "00:00:00.302", 1, 906, 239.027, 80.7435, 0, 50, 0, 0, 252.297, 0, 0
"Med_NSS_2(1)", "00:00:00.302", 1, 907, 238.112, 76.7953, 4.05298, 50, 0.0810596, -166.948, 250.19, -0.915283, -3.94828
"Med_NSS_2(1)", "00:00:00.302", 1, 908, 237.837, 76.4825, 0.416632, 50, 0.00833265, -138.661, 249.832, -0.275192, -0.312813
"Med_NSS_2(1)", "00:00:00.302", 1, 909, 236.072, 72.392, 4.45503, 50, 0.0891007, -156.658, 246.922, -1.76515, -4.09042
"Med_NSS_2(1)", "00:00:00.302", 1, 910, 235.017, 71.0736, 1.68854, 50, 0.0337709, -141.336, 245.529, -1.05492, -1.31846
"Med_NSS_2(1)", "00:00:00.303", 1, 911, 234.521, 70.6063, 0.681208, 50, 0.0136242, -133.305, 244.919, -0.495728, -0.467224
"Med_NSS_2(1)", "00:00:00.303", 1, 912, 233.514, 66.7687, 3.96769, 50, 0.0793538, -165.288, 242.872, -1.00763, -3.83761
"Med_NSS_2(1)", "00:00:00.303", 1, 913, 231.354, 66.6934, 2.16136, 50, 0.0432273, -91.9989, 240.775, -2.16005, -0.075386
"Med_NSS_2(1)", "00:00:00.303", 1, 914, 228.492, 66.8979, 2.86839, 50, 0.0573677, -85.9109, 238.084, -2.86108, 0.204544
"Med_NSS_2(1)", "00:00:00.303", 1, 915, 222.166, 66.2588, 6.35873, 50, 0.127175, -95.7681, 231.836, -6.32654, -0.639061
"Med_NSS_2(1)", "00:00:00.303", 1, 916, 218.364, 67.3354, 3.95176, 50, 0.0790353, -74.1912, 228.51, -3.80229, 1.07658
"Med_NSS_2(1)", "00:00:00.303", 1, 917, 212.603, 71.2315, 6.95449, 50, 0.13909, -55.9288, 224.218, -5.7607, 3.89606
"Med_NSS_2(1)", "00:00:00.304", 1, 918, 210.916, 71.9127, 1.81954, 50, 0.0363908, -68.0123, 222.838, -1.68719, 0.681252
"Med_NSS_2(1)", "00:00:00.304", 1, 919, 211.632, 71.6948, 0.748367, 50, 0.0149673, 106.932, 223.446, 0.715927, -0.217949
"Med_NSS_2(1)", "00:00:00.304", 1, 920, 210.367, 76.7676, 5.22797, 50, 0.104559, -13.9939, 223.937, -1.26422, 5.07281
"Med_NSS_2(1)", "00:00:00.304", 1, 921, 211.237, 76.2941, 0.990329, 50, 0.0198066, 118.563, 224.593, 0.869797, -0.473503
"Med_NSS_2(1)", "00:00:00.304", 1, 922, 211.768, 81.73, 5.46174, 50, 0.109235, 5.5722, 226.992, 0.530334, 5.43593
"Med_NSS_2(1)", "00:00:00.305", 1, 923, 212.536, 80.6948, 1.28917, 50, 0.0257835, 143.419, 227.339, 0.768295, -1.03522
"Med_NSS_2(1)", "00:00:00.305", 1, 924, 213.51, 79.9857, 1.2046, 50, 0.0240919, 126.06, 228, 0.973801, -0.709061
"Med_NSS_2(1)", "00:00:00.305", 1, 925, 216.646, 86.4048, 7.14432, 50, 0.142886, 26.0395, 233.241, 3.13629, 6.41911
"Med_NSS_2(1)", "00:00:00.305", 1, 926, 215.698, 84.3444, 2.26816, 50, 0.0453633, -155.287, 231.602, -0.948273, -2.06042
"Med_NSS_2(1)", "00:00:00.305", 1, 927, 215.277, 83.1257, 1.28927, 50, 0.0257855, -160.952, 230.768, -0.420761, -1.21868
"Med_NSS_2(1)", "00:00:00.305", 1, 928, 219.164, 88.5914, 6.70716, 50, 0.134143, 35.4226, 236.393, 3.88748, 5.46566
"Med_NSS_2(1)", "00:00:00.305", 1, 929, 222.499, 91.4756, 4.40886, 50, 0.0881772, 49.1423, 240.569, 3.33458, 2.8842
"Med_NSS_2(1)", "00:00:00.306", 1, 930, 231.343, 99.8973, 12.2124, 50, 0.244249, 46.4015, 251.99, 8.84412, 8.42171
"Med_NSS_2(1)", "00:00:00.306", 1, 931, 237.173, 104.134, 7.20715, 50, 0.144143, 53.993, 259.027, 5.83018, 4.23697
"Med_NSS_2(1)", "00:00:00.306", 1, 932, 239.57, 105.96, 3.01323, 50, 0.0602646, 52.6999, 261.957, 2.39694, 1.82599
"Med_NSS_2(1)", "00:00:00.306", 1, 933, 246.724, 115.384, 11.8315, 50, 0.23663, 37.2039, 272.372, 7.15393, 9.42365
"Med_NSS_2(1)", "00:00:00.306", 1, 934, 252.156, 118.892, 6.46644, 50, 0.129329, 57.1454, 278.78, 5.43213, 3.50811
"Med_NSS_2(1)", "00:00:00.307", 1, 935, 262.368, 129.56, 14.7671, 50, 0.295343, 43.7477, 292.613, 10.2112, 10.6677
"Med_NSS_2(1)", "00:00:00.307", 1, 936, 269.755, 134.346, 8.80255, 50, 0.176051, 57.0596, 301.358, 7.38742, 4.78653
"Med_NSS_2(1)", "00:00:00.307", 1, 937, 272.702, 135.457, 3.14952, 50, 0.0629905, 69.3454, 304.491, 2.94708, 1.11095
"Med_NSS_2(1)", "00:00:00.307", 1, 938, 280.559, 142.258, 10.3912, 50, 0.207825, 49.1213, 314.564, 7.85678, 6.80066
"Med_NSS_2(1)", "00:00:00.307", 1, 939, 284.747, 144.065, 4.56091, 50, 0.0912182, 66.6637, 319.116, 4.18781, 1.8067
"Med_NSS_2(1)", "00:00:00.307", 1, 940, 285.851, 144.565, 1.21275, 50, 0.0242549, 65.6214, 320.328, 1.10461, 0.50058
"Med_NSS_2(1)", "00:00:00.308", 1, 941, 288.579, 151.467, 7.42145, 50, 0.148429, 21.5611, 325.914, 2.72733, 6.90215
"Med_NSS_2(1)", "00:00:00.308", 1, 942, 289.882, 151.669, 1.3186, 50, 0.026372, 81.2064, 327.162, 1.3031, 0.201584
"Med_NSS_2(1)", "00:00:00.308", 1, 943, 291.408, 158.457, 6.95754, 50, 0.139151, 12.672, 331.703, 1.52628, 6.78807
"Med_NSS_2(1)", "00:00:00.308", 1, 944, 291.549, 158.514, 0.151826, 50, 0.00303652, 67.8843, 331.854, 0.140656, 0.0571594
"Med_NSS_2(1)", "00:00:00.308", 1, 945, 290.309, 158.601, 1.24294, 50, 0.0248588, -86.0101, 330.807, -1.23993, 0.0864868
"Med_NSS_2(1)", "00:00:00.308", 1, 946, 289.92, 162.619, 4.03732, 50, 0.0807464, -5.51963, 332.414, -0.388336, 4.0186
"Med_NSS_2(1)", "00:00:00.309", 1, 947, 288.917, 162.677, 1.00474, 50, 0.0200947, -86.6812, 331.568, -1.00305, 0.0581665
"Med_NSS_2(1)", "00:00:00.309", 1, 948, 286.758, 164.75, 2.99319, 50, 0.0598638, -46.1672, 330.716, -2.15918, 2.07295
"Med_NSS_2(1)", "00:00:00.309", 1, 949, 286.583, 164.881, 0.218171, 50, 0.00436341, -53.2343, 330.629, -0.174774, 0.130585
"Med_NSS_2(1)", "00:00:00.309", 1, 950, 286.586, 164.882, 0.00338432, 50, 6.76864e-005, 69.6859, 330.633, 0.00317383, 0.00117493
"Med_NSS_2(1)", "00:00:00.309", 1, 951, 283.991, 166.381, 2.99701, 50, 0.0599402, -59.999, 329.14, -2.59546, 1.49855
"Med_NSS_2(1)", "00:00:00.310", 1, 952, 282.356, 165.572, 1.82372, 50, 0.0364744, -116.321, 327.321, -1.63464, -0.80864
"Med_NSS_2(1)", "00:00:00.310", 1, 953, 281.641, 165.746, 0.736197, 50, 0.0147239, -76.2864, 326.793, -0.71521, 0.17453
"Med_NSS_2(1)", "00:00:00.310", 1, 954, 280.262, 167.09, 1.92555, 50, 0.038511, -45.7382, 326.291, -1.379, 1.34392
"Med_NSS_2(1)", "00:00:00.310", 1, 955, 280.194, 166.884, 0.216815, 50, 0.00433629, -161.783, 326.128, -0.0677795, -0.205948
"Med_NSS_2(1)", "00:00:00.310", 1, 956, 279.089, 166.507, 1.16793, 50, 0.0233585, -108.85, 324.985, -1.10529, -0.37735
"Med_NSS_2(1)", "00:00:00.310", 1, 957, 279.505, 166.962, 0.616559, 50, 0.0123312, 42.4223, 325.576, 0.415924, 0.455139
"Med_NSS_2(1)", "00:00:00.310", 1, 958, 280.353, 166.988, 0.848757, 50, 0.0169751, 88.2446, 326.317, 0.848358, 0.026001
"Med_NSS_2(1)", "00:00:00.311", 1, 959, 280.162, 167.149, 0.250451, 50, 0.00500902, -49.9701, 326.235, -0.191772, 0.161087
"Med_NSS_2(1)", "00:00:00.311", 1, 960, 280.121, 166.965, 0.18903, 50, 0.00378059, -167.487, 326.106, -0.0409546, -0.18454
"Med_NSS_2(1)", "00:00:00.311", 1, 961, 275.573, 165.699, 4.72056, 50, 0.0944111, -105.552, 321.554, -4.54773, -1.26563
"Med_NSS_2(1)", "00:00:00.311", 1, 962, 276.15, 165.91, 0.614422, 50, 0.0122884, 69.932, 322.157, 0.577118, 0.210831
"Med_NSS_2(1)", "00:00:00.311", 1, 963, 276.024, 165.926, 0.127231, 50, 0.00254463, -82.8836, 322.057, -0.126251, 0.0157623
"Med_NSS_2(1)", "00:00:00.312", 1, 964, 269.374, 159.755, 9.07198, 50, 0.18144, -132.858, 313.183, -6.65012, -6.17064
"Med_NSS_2(1)", "00:00:00.312", 1, 965, 268.878, 159.834, 0.502131, 50, 0.0100426, -80.9276, 312.798, -0.49585, 0.0791779
"Med_NSS_2(1)", "00:00:00.312", 1, 966, 262.269, 153.477, 9.17028, 50, 0.183406, -133.889, 303.875, -6.60886, -6.35744
"Med_NSS_2(1)", "00:00:00.312", 1, 967, 261.872, 152.722, 0.852658, 50, 0.0170532, -152.288, 303.152, -0.396515, -0.754852
"Med_NSS_2(1)", "00:00:00.312", 1, 968, 262.25, 152.89, 0.413563, 50, 0.00827126, 65.979, 303.563, 0.377747, 0.16835
"Med_NSS_2(1)", "00:00:00.312", 1, 969, 256.283, 144.145, 10.5873, 50, 0.211746, -145.693, 294.039, -5.96729, -8.74542
"Med_NSS_2(1)", "00:00:00.312", 1, 970, 256.402, 143.619, 0.539298, 50, 0.010786, 167.25, 293.885, 0.119019, -0.526001
"Med_NSS_2(1)", "00:00:00.313", 1, 971, 256.479, 143.547, 0.10583, 50, 0.0021166, 133.078, 293.917, 0.077301, -0.0722809
"Med_NSS_2(1)", "00:00:00.313", 1, 972, 260.219, 133.119, 11.078, 50, 0.221561, 160.269, 292.292, 3.74005, -10.4276
"Med_NSS_2(1)", "00:00:00.313", 1, 973, 262.637, 130.462, 3.59212, 50, 0.0718424, 137.7, 293.255, 2.41754, -2.65685
"Med_NSS_2(1)", "00:00:00.313", 1, 974, 269.88, 121.528, 11.5016, 50, 0.230032, 140.966, 295.981, 7.24353, -8.93408
"Med_NSS_2(1)", "00:00:00.313", 1, 975, 271.451, 120.836, 1.71663, 50, 0.0343327, 113.785, 297.131, 1.57083, -0.692329
"Med_NSS_2(1)", "00:00:00.314", 1, 976, 270.542, 121.205, 0.981304, 50, 0.0196261, -67.9243, 296.451, -0.909363, 0.368805
"Med_NSS_2(1)", "00:00:00.314", 1, 977, 271.155, 109.187, 12.0333, 50, 0.240666, 177.078, 292.313, 0.613342, -12.0177
"Med_NSS_2(1)", "00:00:00.314", 1, 978, 271.645, 93.7109, 15.4838, 50, 0.309676, 178.188, 287.354, 0.489532, -15.4761
"Med_NSS_2(1)", "00:00:00.314", 1, 979, 269.203, 82.221, 11.7464, 50, 0.234928, -168.005, 281.48, -2.44125, -11.4899
"Med_NSS_2(1)", "00:00:00.314", 1, 980, 269.278, 80.5523, 1.67037, 50, 0.0334073, 177.441, 281.068, 0.074585, -1.6687
"Med_NSS_2(1)", "00:00:00.315", 1, 981, 268.876, 81.2903, 0.840471, 50, 0.0168094, -28.5919, 280.896, -0.402222, 0.737976
"Med_NSS_2(1)", "00:00:00.315", 1, 982, 266.889, 77.146, 4.59591, 50, 0.0919183, -154.386, 277.815, -1.98685, -4.14426
"Med_NSS_2(1)", "00:00:00.315", 1, 983, 266.905, 77.3635, 0.218076, 50, 0.00436151, 4.14089, 277.891, 0.0157471, 0.217506
"Med_NSS_2(1)", "00:00:00.315", 1, 984, 266.905, 77.4911, 0.127634, 50, 0.00255268, 0.328791, 277.927, 0.000732422, 0.127632
"Med_NSS_2(1)", "00:00:00.315", 1, 985, 266.4, 75.7913, 1.77345, 50, 0.035469, -163.435, 276.971, -0.505615, -1.69984
"Med_NSS_2(1)", "00:00:00.315", 1, 986, 265.677, 76.427, 0.962382, 50, 0.0192476, -48.655, 276.452, -0.722504, 0.635742
"Med_NSS_2(1)", "00:00:00.315", 1, 987, 265.816, 75.3417, 1.09417, 50, 0.0218835, 172.709, 276.287, 0.138855, -1.08533
"Med_NSS_2(1)", "00:00:00.316", 1, 988, 266.037, 75.1214, 0.311701, 50, 0.00623401, 134.986, 276.439, 0.220459, -0.220352
"Med_NSS_2(1)", "00:00:00.316", 1, 989, 266.037, 75.1207, 0.000837984, 50, 1.67597e-005, 146.889, 276.44, 0.000457764, -0.000701904
"Med_NSS_2(1)", "00:00:00.316", 1, 990, 266.655, 73.8566, 1.40708, 50, 0.0281417, 153.941, 276.694, 0.618134, -1.26404
"Med_NSS_2(1)", "00:00:00.316", 1, 991, 267.357, 74.3217, 0.841486, 50, 0.0168297, 56.4458, 277.495, 0.701263, 0.465111
"Med_NSS_2(1)", "00:00:00.316", 1, 992, 270.429, 73.0591, 3.32177, 50, 0.0664354, 112.34, 280.124, 3.07245, -1.26263
"Med_NSS_2(1)", "00:00:00.317", 1, 993, 271.866, 73.1855, 1.44278, 50, 0.0288555, 84.9726, 281.545, 1.43723, 0.126434
"Med_NSS_2(1)", "00:00:00.317", 1, 994, 272.198, 73.3835, 0.386284, 50, 0.00772568, 59.178, 281.916, 0.331726, 0.197922
"Med_NSS_2(1)", "00:00:00.317", 1, 995, 274.312, 73.5244, 2.11911, 50, 0.0423821, 86.1854, 283.995, 2.11441, 0.140984
"Med_NSS_2(1)", "00:00:00.317", 1, 996, 274.926, 74.3158, 1.00165, 50, 0.0200331, 37.8068, 284.793, 0.614014, 0.791389
"Med_NSS_2(1)", "00:00:00.317", 1, 997, 275.273, 74.3601, 0.349913, 50, 0.00699827, 82.7387, 285.14, 0.347107, 0.0442276
"Med_NSS_2(1)", "00:00:00.317", 1, 998, 275.047, 76.515, 2.16681, 50, 0.0433362, -6.00591, 285.491, -0.226715, 2.15491
"Med_NSS_2(1)", "00:00:00.318", 1, 999, 274.776, 76.5937, 0.281539, 50, 0.00563078, -73.752, 285.252, -0.270294, 0.0787735
"Med_NSS_2(1)", "00:00:00.318", 1, 1000, 270.993, 83.6458, 8.00284, 50, 0.160057, -28.2136, 283.609, -3.78342, 7.05204
"Med_NSS_2(1)", "00:00:00.318", 1, 1001, 270.896, 82.303, 1.34625, 50, 0.0269249, -175.866, 283.123, -0.0970459, -1.34274
"Med_NSS_2(1)", "00:00:00.318", 1, 1002, 270.867, 80.3115, 1.99173, 50, 0.0398347, -179.181, 282.523, -0.0284729, -1.99153
"Med_NSS_2(1)", "00:00:00.318", 1, 1003, 263.695, 87.8141, 10.3791, 50, 0.207583, -43.7097, 277.933, -7.17203, 7.50256
