"Image Name", "Elapsed Time", "Object #", "Frame #", "X", "Y", "Distance", "Time Interval", "Velocity", "Absolute Angle", "Distance To Origin", "Delta X", "Delta Y"
"NSS_02", "00:00:00.000", 1, 1, 98.3264, 167.06, 0, 0, 0, 0, 193.848, 0, 0
"NSS_02", "00:00:00.146", 1, 2, 98.321, 167.061, 0.00550555, 50, 0.000110111, -77.6779, 193.847, -0.00537872, 0.00117493
"NSS_02", "00:00:00.146", 1, 3, 94.7693, 169.176, 4.13359, 50, 0.0826717, -59.232, 193.912, -3.55177, 2.11459
"NSS_02", "00:00:00.146", 1, 4, 94.686, 169.221, 0.0945808, 50, 0.00189162, -61.7275, 193.91, -0.0832977, 0.0447998
"NSS_02", "00:00:00.146", 1, 5, 92.126, 171.391, 3.35597, 50, 0.0671195, -49.7117, 194.582, -2.55994, 2.17009
"NSS_02", "00:00:00.147", 1, 6, 91.5761, 171.254, 0.566638, 50, 0.0113328, -103.924, 194.202, -0.549988, -0.136353
"NSS_02", "00:00:00.147", 1, 7, 91.5761, 171.254, 0, 50, 0, 0, 194.202, 0, 0
"NSS_02", "00:00:00.147", 1, 8, 92.1649, 171.509, 0.641603, 50, 0.0128321, 66.599, 194.704, 0.588829, 0.254822
"NSS_02", "00:00:00.147", 1, 9, 91.8337, 172.108, 0.68392, 50, 0.0136784, -28.9674, 195.076, -0.33123, 0.598358
"NSS_02", "00:00:00.147", 1, 10, 91.8337, 172.108, 0, 50, 0, 0, 195.076, 0, 0
"NSS_02", "00:00:00.148", 1, 11, 90.1301, 174.625, 3.0392, 50, 0.0607841, -34.0917, 196.513, -1.70353, 2.51689
"NSS_02", "00:00:00.148", 1, 12, 90.4171, 175.42, 0.845769, 50, 0.0169154, 19.835, 197.351, 0.28698, 0.795593
"NSS_02", "00:00:00.148", 1, 13, 94.8913, 175.226, 4.4784, 50, 0.0895679, 92.4833, 199.27, 4.47419, -0.194031
"NSS_02", "00:00:00.148", 1, 14, 97.384, 175.652, 2.52888, 50, 0.0505775, 80.2949, 200.842, 2.49268, 0.426315
"NSS_02", "00:00:00.148", 1, 15, 98.704, 176.616, 1.63427, 50, 0.0326855, 53.8743, 202.326, 1.32005, 0.963501
"NSS_02", "00:00:00.148", 1, 16, 105.08, 177.511, 6.43828, 50, 0.128766, 82.0054, 206.281, 6.3757, 0.895447
"NSS_02", "00:00:00.148", 1, 17, 107.22, 178.562, 2.3844, 50, 0.047688, 63.8538, 208.28, 2.14041, 1.05072
"NSS_02", "00:00:00.149", 1, 18, 113.066, 177.539, 5.9346, 50, 0.118692, 99.929, 210.485, 5.84571, -1.02328
"NSS_02", "00:00:00.149", 1, 19, 113.199, 178.205, 0.679605, 50, 0.0135921, 11.2946, 211.119, 0.133102, 0.666443
"NSS_02", "00:00:00.149", 1, 20, 112.74, 178.155, 0.461972, 50, 0.00923944, -96.2386, 210.83, -0.459236, -0.0502014
"NSS_02", "00:00:00.149", 1, 21, 112.735, 174.099, 4.056, 50, 0.08112, -179.94, 207.412, -0.0042572, -4.056
"NSS_02", "00:00:00.149", 1, 22, 112.654, 174.393, 0.305031, 50, 0.00610062, -15.419, 207.615, -0.0811005, 0.294052
"NSS_02", "00:00:00.150", 1, 23, 106.961, 170.683, 6.79597, 50, 0.135919, -123.09, 201.428, -5.69379, -3.71025
"NSS_02", "00:00:00.150", 1, 24, 104.823, 170.142, 2.20517, 50, 0.0441035, -104.196, 199.84, -2.13783, -0.540802
"NSS_02", "00:00:00.150", 1, 25, 104.919, 169.938, 0.225929, 50, 0.00451858, 154.679, 199.717, 0.0966263, -0.204224
"NSS_02", "00:00:00.150", 1, 26, 100.605, 166.189, 5.71573, 50, 0.114315, -130.99, 194.268, -4.31435, -3.74911
"NSS_02", "00:00:00.150", 1, 27, 99.6937, 165.244, 1.31291, 50, 0.0262581, -136.043, 192.988, -0.911308, -0.945114
"NSS_02", "00:00:00.150", 1, 28, 100.22, 165.017, 0.572898, 50, 0.011458, 113.35, 193.066, 0.525978, -0.227066
"NSS_02", "00:00:00.150", 1, 29, 95.1872, 159.864, 7.20216, 50, 0.144043, -135.674, 186.057, -5.03246, -5.15222
"NSS_02", "00:00:00.151", 1, 30, 93.6198, 159.165, 1.71655, 50, 0.0343309, -114.057, 184.656, -1.56744, -0.699753
"NSS_02", "00:00:00.151", 1, 31, 87.8797, 153.49, 8.07115, 50, 0.161423, -134.669, 176.868, -5.74008, -5.67406
"NSS_02", "00:00:00.151", 1, 32, 88.0365, 152.44, 1.06191, 50, 0.0212382, 171.511, 176.035, 0.156761, -1.05028
"NSS_02", "00:00:00.151", 1, 33, 88.1348, 151.61, 0.835563, 50, 0.0167113, 173.242, 175.367, 0.0983276, -0.829758
"NSS_02", "00:00:00.151", 1, 34, 88.4555, 141.352, 10.2638, 50, 0.205277, 178.209, 166.747, 0.320747, -10.2588
"NSS_02", "00:00:00.152", 1, 35, 90.5788, 138.68, 3.41281, 50, 0.0682561, 141.526, 165.64, 2.12332, -2.67184
"NSS_02", "00:00:00.152", 1, 36, 100.05, 125.939, 15.8756, 50, 0.317513, 143.375, 160.843, 9.47095, -12.7411
"NSS_02", "00:00:00.152", 1, 37, 108.772, 116.735, 12.6804, 50, 0.253608, 136.537, 159.557, 8.72266, -9.2037
"NSS_02", "00:00:00.152", 1, 38, 113.743, 111.669, 7.09725, 50, 0.141945, 135.543, 159.397, 4.9707, -5.06588
"NSS_02", "00:00:00.152", 1, 39, 123.158, 98.603, 16.1046, 50, 0.322092, 144.226, 157.767, 9.4146, -13.0661
"NSS_02", "00:00:00.152", 1, 40, 127.838, 94.4265, 6.27255, 50, 0.125451, 131.746, 158.93, 4.67995, -4.17648
"NSS_02", "00:00:00.153", 1, 41, 128.509, 93.6562, 1.02153, 50, 0.0204306, 138.945, 159.016, 0.670921, -0.770317
"NSS_02", "00:00:00.153", 1, 42, 133.717, 87.5037, 8.06082, 50, 0.161216, 139.752, 159.803, 5.2081, -6.15244
"NSS_02", "00:00:00.153", 1, 43, 135.504, 86.868, 1.89705, 50, 0.037941, 109.58, 160.958, 1.78735, -0.635735
"NSS_02", "00:00:00.153", 1, 44, 140.547, 81.5459, 7.33212, 50, 0.146642, 136.541, 162.491, 5.04335, -5.32209
"NSS_02", "00:00:00.153", 1, 45, 142.102, 81.2732, 1.57877, 50, 0.0315754, 99.9474, 163.702, 1.55504, -0.27272
"NSS_02", "00:00:00.153", 1, 46, 141.978, 81.2288, 0.131818, 50, 0.00263635, -109.664, 163.573, -0.12413, -0.0443573
"NSS_02", "00:00:00.154", 1, 47, 144.93, 78.0275, 4.35439, 50, 0.0870878, 137.323, 164.6, 2.95171, -3.20127
"NSS_02", "00:00:00.154", 1, 48, 145.026, 78.0265, 0.0955254, 50, 0.00191051, 90.6087, 164.683, 0.09552, -0.00101471
"NSS_02", "00:00:00.154", 1, 49, 146.709, 76.6443, 2.17813, 50, 0.0435626, 129.39, 165.523, 1.68335, -1.38224
"NSS_02", "00:00:00.154", 1, 50, 147.033, 77.0942, 0.554219, 50, 0.0110844, 35.735, 166.018, 0.323685, 0.449875
"NSS_02", "00:00:00.154", 1, 51, 147.033, 77.0942, 0, 50, 0, 0, 166.018, 0, 0
"NSS_02", "00:00:00.155", 1, 52, 147.48, 76.9423, 0.472809, 50, 0.00945617, 108.73, 166.345, 0.447769, -0.151825
"NSS_02", "00:00:00.155", 1, 53, 147.036, 77.1448, 0.488425, 50, 0.00976851, -65.5071, 166.045, -0.444473, 0.202492
"NSS_02", "00:00:00.155", 1, 54, 147.036, 77.1448, 0, 50, 0, 0, 166.045, 0, 0
"NSS_02", "00:00:00.155", 1, 55, 145.944, 77.6414, 1.19994, 50, 0.0239987, -65.5537, 165.311, -1.09236, 0.496582
"NSS_02", "00:00:00.155", 1, 56, 145.822, 78.2636, 0.633872, 50, 0.0126774, -11.0232, 165.497, -0.121201, 0.622177
"NSS_02", "00:00:00.155", 1, 57, 143.238, 79.1341, 2.72658, 50, 0.0545316, -71.3811, 163.644, -2.58388, 0.870522
"NSS_02", "00:00:00.155", 1, 58, 142.705, 79.213, 0.53935, 50, 0.010787, -81.5928, 163.216, -0.533554, 0.0788574
"NSS_02", "00:00:00.156", 1, 59, 142.705, 79.213, 0, 50, 0, 0, 163.216, 0, 0
"NSS_02", "00:00:00.156", 1, 60, 138.008, 81.8396, 5.38138, 50, 0.107628, -60.7845, 160.449, -4.69681, 2.62663
"NSS_02", "00:00:00.156", 1, 61, 138.035, 81.7522, 0.091568, 50, 0.00183136, 162.716, 160.428, 0.0272064, -0.0874329
"NSS_02", "00:00:00.156", 1, 62, 135.785, 83.4817, 2.83852, 50, 0.0567705, -52.4616, 159.395, -2.25079, 1.72949
"NSS_02", "00:00:00.156", 1, 63, 136.15, 81.6624, 1.85569, 50, 0.0371137, 168.627, 158.763, 0.365952, -1.81924
"NSS_02", "00:00:00.157", 1, 64, 136.102, 81.0888, 0.575717, 50, 0.0115143, -175.13, 158.427, -0.0488739, -0.573639
"NSS_02", "00:00:00.157", 1, 65, 131.274, 78.6067, 5.42804, 50, 0.108561, -117.212, 153.01, -4.82729, -2.48212
"NSS_02", "00:00:00.157", 1, 66, 129.733, 78.1327, 1.61223, 50, 0.0322446, -107.095, 151.445, -1.541, -0.47393
"NSS_02", "00:00:00.157", 1, 67, 129.514, 77.8716, 0.341262, 50, 0.00682525, -139.916, 151.122, -0.219742, -0.261101
"NSS_02", "00:00:00.157", 1, 68, 125.218, 75.7597, 4.78673, 50, 0.0957347, -116.181, 146.352, -4.29562, -2.11198
"NSS_02", "00:00:00.157", 1, 69, 124.113, 76.2904, 1.22554, 50, 0.0245107, -64.3385, 145.686, -1.10466, 0.530724
"NSS_02", "00:00:00.158", 1, 70, 119.135, 79.5016, 5.92449, 50, 0.11849, -57.1781, 143.226, -4.9787, 3.21126
"NSS_02", "00:00:00.158", 1, 71, 119.537, 79.7397, 0.467423, 50, 0.00934846, 59.3848, 143.692, 0.402267, 0.238045
"NSS_02", "00:00:00.158", 1, 72, 120.842, 79.626, 1.31, 50, 0.0261999, 94.9793, 144.717, 1.30505, -0.113701
"NSS_02", "00:00:00.158", 1, 73, 127.514, 86.9396, 9.89951, 50, 0.19799, 42.3716, 154.331, 6.67163, 7.31366
"NSS_02", "00:00:00.158", 1, 74, 127.796, 86.3583, 0.646256, 50, 0.0129251, 154.092, 154.239, 0.282364, -0.581306
"NSS_02", "00:00:00.158", 1, 75, 132.676, 92.9866, 8.23116, 50, 0.164623, 36.3645, 162.017, 4.88042, 6.62823
"NSS_02", "00:00:00.159", 1, 76, 135.04, 94.7812, 2.96794, 50, 0.0593588, 52.7939, 164.983, 2.36386, 1.79467
"NSS_02", "00:00:00.159", 1, 77, 135.187, 94.9534, 0.226384, 50, 0.00452767, 40.4828, 165.202, 0.146973, 0.172188
"NSS_02", "00:00:00.159", 1, 78, 141.778, 103.205, 10.5608, 50, 0.211217, 38.6166, 175.363, 6.59106, 8.2516
"NSS_02", "00:00:00.159", 1, 79, 146.967, 106.368, 6.07636, 50, 0.121527, 58.6345, 181.42, 5.18839, 3.16273
"NSS_02", "00:00:00.159", 1, 80, 158.363, 116.378, 15.1683, 50, 0.303366, 48.7068, 196.526, 11.3966, 10.0098
"NSS_02", "00:00:00.160", 1, 81, 165.328, 120.351, 8.01861, 50, 0.160372, 60.2916, 204.494, 6.96463, 3.97392
"NSS_02", "00:00:00.160", 1, 82, 168.502, 122.208, 3.67753, 50, 0.0735505, 59.6796, 208.153, 3.1745, 1.85654
"NSS_02", "00:00:00.160", 1, 83, 176.948, 129.886, 11.4139, 50, 0.228279, 47.7249, 219.501, 8.44543, 7.67806
"NSS_02", "00:00:00.160", 1, 84, 181.147, 132.264, 4.82605, 50, 0.096521, 60.4783, 224.295, 4.19948, 2.37805
"NSS_02", "00:00:00.160", 1, 85, 182.251, 132.559, 1.1428, 50, 0.0228559, 75.0199, 225.361, 1.10396, 0.295395
"NSS_02", "00:00:00.160", 1, 86, 189.43, 138.691, 9.44086, 50, 0.188817, 49.496, 234.774, 7.17845, 6.13185
"NSS_02", "00:00:00.161", 1, 87, 194.456, 140.871, 5.47841, 50, 0.109568, 66.5582, 240.12, 5.02625, 2.17941
"NSS_02", "00:00:00.161", 1, 88, 202.904, 145.188, 9.48703, 50, 0.189741, 62.9309, 249.498, 8.4478, 4.31721
"NSS_02", "00:00:00.161", 1, 89, 207.754, 146.717, 5.0857, 50, 0.101714, 72.5051, 254.338, 4.85045, 1.52887
"NSS_02", "00:00:00.161", 1, 90, 209.974, 147.645, 2.40591, 50, 0.0481182, 67.3001, 256.687, 2.21954, 0.928452
"NSS_02", "00:00:00.163", 1, 91, 215.434, 151.108, 6.46551, 50, 0.12931, 57.6208, 263.145, 5.46027, 3.46242
"NSS_02", "00:00:00.163", 1, 92, 218.036, 152.081, 2.77823, 50, 0.0555646, 69.4842, 265.835, 2.60202, 0.973679
"NSS_02", "00:00:00.163", 1, 93, 222.794, 155.601, 5.91884, 50, 0.118377, 53.5076, 271.752, 4.75836, 3.52003
"NSS_02", "00:00:00.163", 1, 94, 225.322, 156.564, 2.705, 50, 0.0541, 69.1581, 274.376, 2.528, 0.962418
"NSS_02", "00:00:00.163", 1, 95, 225.931, 157.204, 0.883408, 50, 0.0176682, 43.5583, 275.242, 0.608749, 0.640182
"NSS_02", "00:00:00.164", 1, 96, 230.265, 159.616, 4.96021, 50, 0.0992042, 60.9011, 280.177, 4.33414, 2.41225
"NSS_02", "00:00:00.164", 1, 97, 232.59, 160.328, 2.43142, 50, 0.0486284, 72.9708, 282.495, 2.32481, 0.712067
"NSS_02", "00:00:00.164", 1, 98, 233.831, 160.059, 1.2698, 50, 0.025396, 102.224, 283.365, 1.24101, -0.26886
"NSS_02", "00:00:00.164", 1, 99, 239.493, 162.288, 6.08473, 50, 0.121695, 68.5191, 289.3, 5.66208, 2.22818
